RecordNum | RecordType | TrainingSeconds | WaveletBasis | DecomposeLevel | NumFeatureRatio | NumFeature | Alpha | FP | FN | RI | TOC | ROC | TN | FPR | Se | Precision
106 | 0 | 120 | db8 | 4 | 0.7 | 8 | 0.995 | 40 | 156 | 1135 | 202 | 162 | 1493 | 0.80198019802 | 0.879163439194 | 0.965957446809
106 | 0 | 120 | db8 | 4 | 0.7 | 8 | 0.9973 | 30 | 174 | 1145 | 174 | 144 | 1493 | 0.827586206897 | 0.868081880212 | 0.974468085106
106 | 0 | 180 | db8 | 4 | 0.7 | 8 | 0.995 | 46 | 158 | 1093 | 168 | 122 | 1419 | 0.72619047619 | 0.873701039169 | 0.959613696225
106 | 0 | 180 | db8 | 4 | 0.7 | 8 | 0.9973 | 37 | 164 | 1102 | 153 | 116 | 1419 | 0.758169934641 | 0.870458135861 | 0.967515364355
106 | 0 | 240 | db8 | 4 | 0.7 | 8 | 0.995 | 50 | 141 | 1032 | 189 | 139 | 1362 | 0.73544973545 | 0.879795396419 | 0.953789279113
106 | 0 | 240 | db8 | 4 | 0.7 | 8 | 0.9973 | 39 | 148 | 1043 | 171 | 132 | 1362 | 0.771929824561 | 0.875734676742 | 0.963955637708
106 | 0 | 300 | db8 | 4 | 0.7 | 8 | 0.995 | 57 | 124 | 964 | 212 | 155 | 1300 | 0.731132075472 | 0.886029411765 | 0.94417238002
106 | 0 | 300 | db8 | 4 | 0.7 | 8 | 0.9973 | 46 | 132 | 975 | 193 | 147 | 1300 | 0.761658031088 | 0.880758807588 | 0.954946131244
106 | 0 | 120 | db8 | 4 | 0.8 | 12 | 0.995 | 50 | 85 | 1125 | 283 | 233 | 1493 | 0.82332155477 | 0.929752066116 | 0.957446808511
106 | 0 | 120 | db8 | 4 | 0.8 | 12 | 0.9973 | 44 | 94 | 1131 | 268 | 224 | 1493 | 0.835820895522 | 0.923265306122 | 0.962553191489
106 | 0 | 180 | db8 | 4 | 0.8 | 11 | 0.995 | 53 | 109 | 1086 | 224 | 171 | 1419 | 0.763392857143 | 0.908786610879 | 0.953467954346
106 | 0 | 180 | db8 | 4 | 0.8 | 11 | 0.9973 | 46 | 115 | 1093 | 211 | 165 | 1419 | 0.781990521327 | 0.904801324503 | 0.959613696225
106 | 0 | 240 | db8 | 4 | 0.8 | 11 | 0.995 | 60 | 108 | 1022 | 232 | 172 | 1362 | 0.741379310345 | 0.904424778761 | 0.944547134935
106 | 0 | 240 | db8 | 4 | 0.8 | 11 | 0.9973 | 51 | 113 | 1031 | 218 | 167 | 1362 | 0.766055045872 | 0.901223776224 | 0.952865064695
106 | 0 | 300 | db8 | 4 | 0.8 | 11 | 0.995 | 78 | 118 | 943 | 239 | 161 | 1300 | 0.673640167364 | 0.888784165881 | 0.9236043095
106 | 0 | 300 | db8 | 4 | 0.8 | 11 | 0.9973 | 70 | 123 | 951 | 226 | 156 | 1300 | 0.690265486726 | 0.885474860335 | 0.931439764936
106 | 0 | 120 | db8 | 4 | 0.9 | 18 | 0.995 | 79 | 50 | 1096 | 347 | 268 | 1493 | 0.772334293948 | 0.956369982548 | 0.932765957447
106 | 0 | 120 | db8 | 4 | 0.9 | 18 | 0.9973 | 67 | 57 | 1108 | 328 | 261 | 1493 | 0.795731707317 | 0.951072961373 | 0.942978723404
106 | 0 | 180 | db8 | 4 | 0.9 | 15 | 0.995 | 76 | 93 | 1063 | 263 | 187 | 1419 | 0.71102661597 | 0.91955017301 | 0.933274802458
106 | 0 | 180 | db8 | 4 | 0.9 | 15 | 0.9973 | 68 | 98 | 1071 | 250 | 182 | 1419 | 0.728 | 0.916167664671 | 0.940298507463
106 | 0 | 240 | db8 | 4 | 0.9 | 14 | 0.995 | 66 | 79 | 1016 | 267 | 201 | 1362 | 0.752808988764 | 0.927853881279 | 0.939001848429
106 | 0 | 240 | db8 | 4 | 0.9 | 14 | 0.9973 | 56 | 84 | 1026 | 252 | 196 | 1362 | 0.777777777778 | 0.924324324324 | 0.948243992606
106 | 0 | 300 | db8 | 4 | 0.9 | 14 | 0.995 | 74 | 71 | 947 | 282 | 208 | 1300 | 0.737588652482 | 0.93025540275 | 0.927522037218
106 | 0 | 300 | db8 | 4 | 0.9 | 14 | 0.9973 | 61 | 75 | 960 | 265 | 204 | 1300 | 0.769811320755 | 0.927536231884 | 0.940254652302
106 | 1 | 120 | db8 | 4 | 0.7 | 6 | 0.995 | 65 | 116 | 1110 | 267 | 202 | 1493 | 0.756554307116 | 0.905383360522 | 0.944680851064
106 | 1 | 120 | db8 | 4 | 0.7 | 6 | 0.9973 | 57 | 123 | 1118 | 252 | 195 | 1493 | 0.77380952381 | 0.90088638195 | 0.951489361702
106 | 1 | 180 | db8 | 4 | 0.7 | 12 | 0.995 | 71 | 53 | 1068 | 298 | 227 | 1419 | 0.761744966443 | 0.952720785013 | 0.937664618086
106 | 1 | 180 | db8 | 4 | 0.7 | 12 | 0.9973 | 66 | 66 | 1073 | 280 | 214 | 1419 | 0.764285714286 | 0.942054433714 | 0.942054433714
106 | 1 | 240 | db8 | 4 | 0.7 | 12 | 0.995 | 113 | 41 | 969 | 352 | 239 | 1362 | 0.678977272727 | 0.959405940594 | 0.895563770795
106 | 1 | 240 | db8 | 4 | 0.7 | 12 | 0.9973 | 101 | 47 | 981 | 334 | 233 | 1362 | 0.697604790419 | 0.954280155642 | 0.906654343808
106 | 1 | 300 | db8 | 4 | 0.7 | 12 | 0.995 | 122 | 30 | 899 | 371 | 249 | 1300 | 0.67115902965 | 0.967707212056 | 0.880509304603
106 | 1 | 300 | db8 | 4 | 0.7 | 12 | 0.9973 | 108 | 37 | 913 | 350 | 242 | 1300 | 0.691428571429 | 0.961052631579 | 0.894221351616
106 | 1 | 120 | db8 | 4 | 0.8 | 9 | 0.995 | 110 | 63 | 1065 | 365 | 255 | 1493 | 0.698630136986 | 0.94414893617 | 0.906382978723
106 | 1 | 120 | db8 | 4 | 0.8 | 9 | 0.9973 | 98 | 71 | 1077 | 345 | 247 | 1493 | 0.715942028986 | 0.938153310105 | 0.916595744681
106 | 1 | 180 | db8 | 4 | 0.8 | 15 | 0.995 | 92 | 44 | 1047 | 328 | 236 | 1419 | 0.719512195122 | 0.959670027498 | 0.91922739245
106 | 1 | 180 | db8 | 4 | 0.8 | 15 | 0.9973 | 85 | 53 | 1054 | 312 | 227 | 1419 | 0.727564102564 | 0.952122854562 | 0.925373134328
106 | 1 | 240 | db8 | 4 | 0.8 | 15 | 0.995 | 113 | 21 | 969 | 372 | 259 | 1362 | 0.69623655914 | 0.978787878788 | 0.895563770795
106 | 1 | 240 | db8 | 4 | 0.8 | 15 | 0.9973 | 106 | 25 | 976 | 361 | 255 | 1362 | 0.706371191136 | 0.975024975025 | 0.902033271719
106 | 1 | 300 | db8 | 4 | 0.8 | 15 | 0.995 | 124 | 14 | 897 | 389 | 265 | 1300 | 0.681233933162 | 0.984632272228 | 0.878550440744
106 | 1 | 300 | db8 | 4 | 0.8 | 15 | 0.9973 | 119 | 19 | 902 | 379 | 260 | 1300 | 0.686015831135 | 0.979370249729 | 0.883447600392
106 | 1 | 120 | db8 | 4 | 0.9 | 14 | 0.995 | 114 | 40 | 1061 | 392 | 278 | 1493 | 0.709183673469 | 0.963669391462 | 0.902978723404
106 | 1 | 120 | db8 | 4 | 0.9 | 14 | 0.9973 | 102 | 44 | 1073 | 376 | 274 | 1493 | 0.728723404255 | 0.9606087735 | 0.913191489362
106 | 1 | 180 | db8 | 4 | 0.9 | 21 | 0.995 | 145 | 16 | 994 | 409 | 264 | 1419 | 0.645476772616 | 0.984158415842 | 0.872695346795
106 | 1 | 180 | db8 | 4 | 0.9 | 21 | 0.9973 | 138 | 19 | 1001 | 399 | 261 | 1419 | 0.654135338346 | 0.98137254902 | 0.878841088674
106 | 1 | 240 | db8 | 4 | 0.9 | 21 | 0.995 | 167 | 8 | 915 | 439 | 272 | 1362 | 0.619589977221 | 0.991332611051 | 0.845656192237
106 | 1 | 240 | db8 | 4 | 0.9 | 21 | 0.9973 | 162 | 11 | 920 | 431 | 269 | 1362 | 0.624129930394 | 0.988184747583 | 0.850277264325
106 | 1 | 300 | db8 | 4 | 0.9 | 22 | 0.995 | 180 | 7 | 841 | 452 | 272 | 1300 | 0.601769911504 | 0.991745283019 | 0.823702252693
106 | 1 | 300 | db8 | 4 | 0.9 | 22 | 0.9973 | 171 | 8 | 850 | 442 | 271 | 1300 | 0.613122171946 | 0.990675990676 | 0.832517140059
116 | 0 | 120 | db8 | 4 | 0.7 | 6 | 0.995 | 680 | 0 | 996 | 776 | 96 | 1772 | 0.123711340206 | 1.0 | 0.594272076372
116 | 0 | 120 | db8 | 4 | 0.7 | 6 | 0.9973 | 651 | 0 | 1025 | 747 | 96 | 1772 | 0.128514056225 | 1.0 | 0.611575178998
116 | 0 | 180 | db8 | 4 | 0.7 | 5 | 0.995 | 596 | 0 | 1004 | 689 | 93 | 1693 | 0.134978229318 | 1.0 | 0.6275
116 | 0 | 180 | db8 | 4 | 0.7 | 5 | 0.9973 | 553 | 0 | 1047 | 646 | 93 | 1693 | 0.143962848297 | 1.0 | 0.654375
116 | 0 | 240 | db8 | 4 | 0.7 | 5 | 0.995 | 630 | 0 | 891 | 722 | 92 | 1613 | 0.127423822715 | 1.0 | 0.585798816568
116 | 0 | 240 | db8 | 4 | 0.7 | 5 | 0.9973 | 593 | 0 | 928 | 685 | 92 | 1613 | 0.134306569343 | 1.0 | 0.610124917817
116 | 0 | 300 | db8 | 4 | 0.7 | 5 | 0.995 | 525 | 0 | 921 | 612 | 87 | 1533 | 0.142156862745 | 1.0 | 0.636929460581
116 | 0 | 300 | db8 | 4 | 0.7 | 5 | 0.9973 | 490 | 0 | 956 | 577 | 87 | 1533 | 0.150779896014 | 1.0 | 0.661134163209
116 | 0 | 120 | db8 | 4 | 0.8 | 7 | 0.995 | 686 | 0 | 990 | 782 | 96 | 1772 | 0.122762148338 | 1.0 | 0.590692124105
116 | 0 | 120 | db8 | 4 | 0.8 | 7 | 0.9973 | 646 | 0 | 1030 | 742 | 96 | 1772 | 0.129380053908 | 1.0 | 0.614558472554
116 | 0 | 180 | db8 | 4 | 0.8 | 6 | 0.995 | 564 | 0 | 1036 | 657 | 93 | 1693 | 0.141552511416 | 1.0 | 0.6475
116 | 0 | 180 | db8 | 4 | 0.8 | 6 | 0.9973 | 530 | 0 | 1070 | 623 | 93 | 1693 | 0.149277688604 | 1.0 | 0.66875
116 | 0 | 240 | db8 | 4 | 0.8 | 6 | 0.995 | 605 | 0 | 916 | 697 | 92 | 1613 | 0.131994261119 | 1.0 | 0.602235371466
116 | 0 | 240 | db8 | 4 | 0.8 | 6 | 0.9973 | 563 | 0 | 958 | 655 | 92 | 1613 | 0.140458015267 | 1.0 | 0.629848783695
116 | 0 | 300 | db8 | 4 | 0.8 | 6 | 0.995 | 505 | 0 | 941 | 592 | 87 | 1533 | 0.146959459459 | 1.0 | 0.650760719225
116 | 0 | 300 | db8 | 4 | 0.8 | 6 | 0.9973 | 458 | 0 | 988 | 545 | 87 | 1533 | 0.159633027523 | 1.0 | 0.68326417704
116 | 0 | 120 | db8 | 4 | 0.9 | 10 | 0.995 | 655 | 0 | 1021 | 751 | 96 | 1772 | 0.127829560586 | 1.0 | 0.609188544153
116 | 0 | 120 | db8 | 4 | 0.9 | 10 | 0.9973 | 620 | 0 | 1056 | 716 | 96 | 1772 | 0.134078212291 | 1.0 | 0.630071599045
116 | 0 | 180 | db8 | 4 | 0.9 | 9 | 0.995 | 566 | 0 | 1034 | 659 | 93 | 1693 | 0.141122913505 | 1.0 | 0.64625
116 | 0 | 180 | db8 | 4 | 0.9 | 9 | 0.9973 | 527 | 0 | 1073 | 620 | 93 | 1693 | 0.15 | 1.0 | 0.670625
116 | 0 | 240 | db8 | 4 | 0.9 | 9 | 0.995 | 615 | 0 | 906 | 707 | 92 | 1613 | 0.130127298444 | 1.0 | 0.595660749507
116 | 0 | 240 | db8 | 4 | 0.9 | 9 | 0.9973 | 582 | 0 | 939 | 674 | 92 | 1613 | 0.13649851632 | 1.0 | 0.617357001972
116 | 0 | 300 | db8 | 4 | 0.9 | 9 | 0.995 | 502 | 0 | 944 | 589 | 87 | 1533 | 0.147707979626 | 1.0 | 0.652835408022
116 | 0 | 300 | db8 | 4 | 0.9 | 9 | 0.9973 | 452 | 0 | 994 | 539 | 87 | 1533 | 0.161410018553 | 1.0 | 0.687413554633
116 | 1 | 120 | db8 | 4 | 0.7 | 1 | 0.995 | 0 | 70 | 1676 | 26 | 26 | 1772 | 1.0 | 0.95990836197 | 1.0
116 | 1 | 120 | db8 | 4 | 0.7 | 1 | 0.9973 | 0 | 73 | 1676 | 23 | 23 | 1772 | 1.0 | 0.958261863922 | 1.0
116 | 1 | 180 | db8 | 4 | 0.7 | 2 | 0.995 | 18 | 63 | 1582 | 48 | 30 | 1693 | 0.625 | 0.96170212766 | 0.98875
116 | 1 | 180 | db8 | 4 | 0.7 | 2 | 0.9973 | 13 | 64 | 1587 | 42 | 29 | 1693 | 0.690476190476 | 0.961235614779 | 0.991875
116 | 1 | 240 | db8 | 4 | 0.7 | 4 | 0.995 | 30 | 28 | 1491 | 94 | 64 | 1613 | 0.68085106383 | 0.981566820276 | 0.980276134122
116 | 1 | 240 | db8 | 4 | 0.7 | 4 | 0.9973 | 23 | 31 | 1498 | 84 | 61 | 1613 | 0.72619047619 | 0.979725310661 | 0.984878369494
116 | 1 | 300 | db8 | 4 | 0.7 | 6 | 0.995 | 55 | 37 | 1391 | 105 | 50 | 1533 | 0.47619047619 | 0.974089635854 | 0.961964038728
116 | 1 | 300 | db8 | 4 | 0.7 | 6 | 0.9973 | 46 | 43 | 1400 | 90 | 44 | 1533 | 0.488888888889 | 0.970200970201 | 0.968188105118
116 | 1 | 120 | db8 | 4 | 0.8 | 4 | 0.995 | 7 | 36 | 1669 | 67 | 60 | 1772 | 0.89552238806 | 0.978885630499 | 0.995823389021
116 | 1 | 120 | db8 | 4 | 0.8 | 4 | 0.9973 | 6 | 42 | 1670 | 60 | 54 | 1772 | 0.9 | 0.97546728972 | 0.996420047733
116 | 1 | 180 | db8 | 4 | 0.8 | 4 | 0.995 | 29 | 27 | 1571 | 95 | 66 | 1693 | 0.694736842105 | 0.98310387985 | 0.981875
116 | 1 | 180 | db8 | 4 | 0.8 | 4 | 0.9973 | 24 | 31 | 1576 | 86 | 62 | 1693 | 0.720930232558 | 0.980709396391 | 0.985
116 | 1 | 240 | db8 | 4 | 0.8 | 7 | 0.995 | 70 | 30 | 1451 | 132 | 62 | 1613 | 0.469696969697 | 0.97974341661 | 0.953977646285
116 | 1 | 240 | db8 | 4 | 0.8 | 7 | 0.9973 | 60 | 35 | 1461 | 117 | 57 | 1613 | 0.487179487179 | 0.976604278075 | 0.960552268245
116 | 1 | 300 | db8 | 4 | 0.8 | 11 | 0.995 | 84 | 3 | 1362 | 168 | 84 | 1533 | 0.5 | 0.997802197802 | 0.941908713693
116 | 1 | 300 | db8 | 4 | 0.8 | 11 | 0.9973 | 72 | 6 | 1374 | 153 | 81 | 1533 | 0.529411764706 | 0.995652173913 | 0.95020746888
116 | 1 | 120 | db8 | 4 | 0.9 | 10 | 0.995 | 73 | 33 | 1603 | 136 | 63 | 1772 | 0.463235294118 | 0.979828850856 | 0.956443914081
116 | 1 | 120 | db8 | 4 | 0.9 | 10 | 0.9973 | 54 | 37 | 1622 | 113 | 59 | 1772 | 0.522123893805 | 0.977697408077 | 0.967780429594
116 | 1 | 180 | db8 | 4 | 0.9 | 10 | 0.995 | 89 | 6 | 1511 | 176 | 87 | 1693 | 0.494318181818 | 0.996044825313 | 0.944375
116 | 1 | 180 | db8 | 4 | 0.9 | 10 | 0.9973 | 75 | 11 | 1525 | 157 | 82 | 1693 | 0.522292993631 | 0.992838541667 | 0.953125
116 | 1 | 240 | db8 | 4 | 0.9 | 14 | 0.995 | 98 | 5 | 1423 | 185 | 87 | 1613 | 0.47027027027 | 0.99649859944 | 0.935568704799
116 | 1 | 240 | db8 | 4 | 0.9 | 14 | 0.9973 | 79 | 9 | 1442 | 162 | 83 | 1613 | 0.512345679012 | 0.993797381116 | 0.948060486522
116 | 1 | 300 | db8 | 4 | 0.9 | 19 | 0.995 | 74 | 0 | 1372 | 161 | 87 | 1533 | 0.540372670807 | 1.0 | 0.948824343015
116 | 1 | 300 | db8 | 4 | 0.9 | 19 | 0.9973 | 61 | 0 | 1385 | 148 | 87 | 1533 | 0.587837837838 | 1.0 | 0.957814661134
119 | 0 | 120 | db8 | 4 | 0.7 | 8 | 0.995 | 19 | 263 | 1117 | 94 | 75 | 1474 | 0.797872340426 | 0.809420289855 | 0.983274647887
119 | 0 | 120 | db8 | 4 | 0.7 | 8 | 0.9973 | 18 | 271 | 1118 | 85 | 67 | 1474 | 0.788235294118 | 0.804895608351 | 0.984154929577
119 | 0 | 180 | db8 | 4 | 0.7 | 8 | 0.995 | 19 | 216 | 1065 | 126 | 107 | 1407 | 0.849206349206 | 0.831381733021 | 0.982472324723
119 | 0 | 180 | db8 | 4 | 0.7 | 8 | 0.9973 | 18 | 235 | 1066 | 106 | 88 | 1407 | 0.830188679245 | 0.819369715603 | 0.983394833948
119 | 0 | 240 | db8 | 4 | 0.7 | 8 | 0.995 | 23 | 193 | 1016 | 134 | 111 | 1343 | 0.828358208955 | 0.840363937138 | 0.977863330125
119 | 0 | 240 | db8 | 4 | 0.7 | 8 | 0.9973 | 20 | 212 | 1019 | 112 | 92 | 1343 | 0.821428571429 | 0.82778229082 | 0.980750721848
119 | 0 | 300 | db8 | 4 | 0.7 | 7 | 0.995 | 19 | 235 | 975 | 68 | 49 | 1278 | 0.720588235294 | 0.805785123967 | 0.980885311871
119 | 0 | 300 | db8 | 4 | 0.7 | 7 | 0.9973 | 16 | 239 | 978 | 61 | 45 | 1278 | 0.737704918033 | 0.803615447823 | 0.983903420523
119 | 0 | 120 | db8 | 4 | 0.8 | 12 | 0.995 | 24 | 137 | 1112 | 225 | 201 | 1474 | 0.893333333333 | 0.8903122498 | 0.978873239437
119 | 0 | 120 | db8 | 4 | 0.8 | 12 | 0.9973 | 22 | 152 | 1114 | 208 | 186 | 1474 | 0.894230769231 | 0.879936808847 | 0.980633802817
119 | 0 | 180 | db8 | 4 | 0.8 | 12 | 0.995 | 26 | 165 | 1058 | 184 | 158 | 1407 | 0.858695652174 | 0.865085854456 | 0.976014760148
119 | 0 | 180 | db8 | 4 | 0.8 | 12 | 0.9973 | 24 | 187 | 1060 | 160 | 136 | 1407 | 0.85 | 0.850040096231 | 0.977859778598
119 | 0 | 240 | db8 | 4 | 0.8 | 12 | 0.995 | 28 | 160 | 1011 | 172 | 144 | 1343 | 0.837209302326 | 0.863364645602 | 0.973051010587
119 | 0 | 240 | db8 | 4 | 0.8 | 12 | 0.9973 | 26 | 171 | 1013 | 159 | 133 | 1343 | 0.836477987421 | 0.855574324324 | 0.974975938402
119 | 0 | 300 | db8 | 4 | 0.8 | 11 | 0.995 | 26 | 170 | 968 | 140 | 114 | 1278 | 0.814285714286 | 0.850615114236 | 0.97384305835
119 | 0 | 300 | db8 | 4 | 0.8 | 11 | 0.9973 | 21 | 179 | 973 | 126 | 105 | 1278 | 0.833333333333 | 0.844618055556 | 0.978873239437
119 | 0 | 120 | db8 | 4 | 0.9 | 18 | 0.995 | 39 | 121 | 1097 | 256 | 217 | 1474 | 0.84765625 | 0.90065681445 | 0.965669014085
119 | 0 | 120 | db8 | 4 | 0.9 | 18 | 0.9973 | 33 | 132 | 1103 | 239 | 206 | 1474 | 0.861924686192 | 0.893117408907 | 0.970950704225
119 | 0 | 180 | db8 | 4 | 0.9 | 18 | 0.995 | 33 | 160 | 1051 | 196 | 163 | 1407 | 0.831632653061 | 0.867877786953 | 0.969557195572
119 | 0 | 180 | db8 | 4 | 0.9 | 18 | 0.9973 | 31 | 179 | 1053 | 175 | 144 | 1407 | 0.822857142857 | 0.854707792208 | 0.971402214022
119 | 0 | 240 | db8 | 4 | 0.9 | 18 | 0.995 | 37 | 156 | 1002 | 185 | 148 | 1343 | 0.8 | 0.865284974093 | 0.964388835419
119 | 0 | 240 | db8 | 4 | 0.9 | 18 | 0.9973 | 35 | 176 | 1004 | 163 | 128 | 1343 | 0.78527607362 | 0.850847457627 | 0.966313763234
119 | 0 | 300 | db8 | 4 | 0.9 | 17 | 0.995 | 34 | 163 | 960 | 155 | 121 | 1278 | 0.78064516129 | 0.854853072128 | 0.965794768612
119 | 0 | 300 | db8 | 4 | 0.9 | 17 | 0.9973 | 29 | 168 | 965 | 145 | 116 | 1278 | 0.8 | 0.85172109444 | 0.970824949698
119 | 1 | 120 | db8 | 4 | 0.7 | 6 | 0.995 | 50 | 248 | 1086 | 140 | 90 | 1474 | 0.642857142857 | 0.814092953523 | 0.955985915493
119 | 1 | 120 | db8 | 4 | 0.7 | 6 | 0.9973 | 46 | 264 | 1090 | 120 | 74 | 1474 | 0.616666666667 | 0.805022156573 | 0.959507042254
119 | 1 | 180 | db8 | 4 | 0.7 | 6 | 0.995 | 54 | 201 | 1030 | 176 | 122 | 1407 | 0.693181818182 | 0.836718115353 | 0.950184501845
119 | 1 | 180 | db8 | 4 | 0.7 | 6 | 0.9973 | 48 | 213 | 1036 | 158 | 110 | 1407 | 0.696202531646 | 0.829463570857 | 0.955719557196
119 | 1 | 240 | db8 | 4 | 0.7 | 6 | 0.995 | 49 | 190 | 990 | 163 | 114 | 1343 | 0.699386503067 | 0.838983050847 | 0.952839268527
119 | 1 | 240 | db8 | 4 | 0.7 | 6 | 0.9973 | 45 | 210 | 994 | 139 | 94 | 1343 | 0.676258992806 | 0.825581395349 | 0.956689124158
119 | 1 | 300 | db8 | 4 | 0.7 | 6 | 0.995 | 45 | 225 | 949 | 104 | 59 | 1278 | 0.567307692308 | 0.808347529813 | 0.954728370221
119 | 1 | 300 | db8 | 4 | 0.7 | 6 | 0.9973 | 44 | 234 | 950 | 94 | 50 | 1278 | 0.531914893617 | 0.802364864865 | 0.955734406439
119 | 1 | 120 | db8 | 4 | 0.8 | 8 | 0.995 | 46 | 186 | 1090 | 198 | 152 | 1474 | 0.767676767677 | 0.854231974922 | 0.959507042254
119 | 1 | 120 | db8 | 4 | 0.8 | 8 | 0.9973 | 41 | 198 | 1095 | 181 | 140 | 1474 | 0.773480662983 | 0.84686774942 | 0.963908450704
119 | 1 | 180 | db8 | 4 | 0.8 | 8 | 0.995 | 50 | 208 | 1034 | 165 | 115 | 1407 | 0.69696969697 | 0.832528180354 | 0.953874538745
119 | 1 | 180 | db8 | 4 | 0.8 | 8 | 0.9973 | 46 | 221 | 1038 | 148 | 102 | 1407 | 0.689189189189 | 0.824463860207 | 0.957564575646
119 | 1 | 240 | db8 | 4 | 0.8 | 9 | 0.995 | 47 | 193 | 992 | 158 | 111 | 1343 | 0.70253164557 | 0.837130801688 | 0.954764196343
119 | 1 | 240 | db8 | 4 | 0.8 | 9 | 0.9973 | 42 | 208 | 997 | 138 | 96 | 1343 | 0.695652173913 | 0.827385892116 | 0.959576515881
119 | 1 | 300 | db8 | 4 | 0.8 | 9 | 0.995 | 42 | 186 | 952 | 140 | 98 | 1278 | 0.7 | 0.836555360281 | 0.957746478873
119 | 1 | 300 | db8 | 4 | 0.8 | 9 | 0.9973 | 40 | 196 | 954 | 128 | 88 | 1278 | 0.6875 | 0.829565217391 | 0.959758551308
119 | 1 | 120 | db8 | 4 | 0.9 | 13 | 0.995 | 50 | 112 | 1086 | 276 | 226 | 1474 | 0.81884057971 | 0.906510851419 | 0.955985915493
119 | 1 | 120 | db8 | 4 | 0.9 | 13 | 0.9973 | 47 | 129 | 1089 | 256 | 209 | 1474 | 0.81640625 | 0.894088669951 | 0.958626760563
119 | 1 | 180 | db8 | 4 | 0.9 | 13 | 0.995 | 47 | 139 | 1037 | 231 | 184 | 1407 | 0.796536796537 | 0.881802721088 | 0.956642066421
119 | 1 | 180 | db8 | 4 | 0.9 | 13 | 0.9973 | 44 | 153 | 1040 | 214 | 170 | 1407 | 0.794392523364 | 0.871751886002 | 0.959409594096
119 | 1 | 240 | db8 | 4 | 0.9 | 13 | 0.995 | 51 | 145 | 988 | 210 | 159 | 1343 | 0.757142857143 | 0.872021182701 | 0.950914340712
119 | 1 | 240 | db8 | 4 | 0.9 | 13 | 0.9973 | 49 | 157 | 990 | 196 | 147 | 1343 | 0.75 | 0.863121185702 | 0.952839268527
119 | 1 | 300 | db8 | 4 | 0.9 | 13 | 0.995 | 50 | 153 | 944 | 181 | 131 | 1278 | 0.723756906077 | 0.860528714676 | 0.949698189135
119 | 1 | 300 | db8 | 4 | 0.9 | 13 | 0.9973 | 45 | 162 | 949 | 167 | 122 | 1278 | 0.730538922156 | 0.854185418542 | 0.954728370221
203 | 0 | 120 | db8 | 4 | 0.7 | 9 | 0.995 | 73 | 190 | 1811 | 220 | 147 | 2221 | 0.668181818182 | 0.905047476262 | 0.961252653928
203 | 0 | 120 | db8 | 4 | 0.7 | 9 | 0.9973 | 64 | 200 | 1820 | 201 | 137 | 2221 | 0.681592039801 | 0.90099009901 | 0.966029723992
203 | 0 | 180 | db8 | 4 | 0.7 | 9 | 0.995 | 75 | 181 | 1720 | 222 | 147 | 2123 | 0.662162162162 | 0.904786954235 | 0.958217270195
203 | 0 | 180 | db8 | 4 | 0.7 | 9 | 0.9973 | 64 | 195 | 1731 | 197 | 133 | 2123 | 0.675126903553 | 0.898753894081 | 0.9643454039
203 | 0 | 240 | db8 | 4 | 0.7 | 10 | 0.995 | 88 | 120 | 1621 | 286 | 198 | 2027 | 0.692307692308 | 0.931074095348 | 0.948507899356
203 | 0 | 240 | db8 | 4 | 0.7 | 10 | 0.9973 | 78 | 132 | 1631 | 264 | 186 | 2027 | 0.704545454545 | 0.925127623369 | 0.954359274429
203 | 0 | 300 | db8 | 4 | 0.7 | 9 | 0.995 | 104 | 125 | 1527 | 279 | 175 | 1931 | 0.627240143369 | 0.924334140436 | 0.936235438381
203 | 0 | 300 | db8 | 4 | 0.7 | 9 | 0.9973 | 90 | 142 | 1541 | 248 | 158 | 1931 | 0.637096774194 | 0.915626856803 | 0.944819129368
203 | 0 | 120 | db8 | 4 | 0.8 | 11 | 0.995 | 72 | 150 | 1812 | 259 | 187 | 2221 | 0.722007722008 | 0.923547400612 | 0.96178343949
203 | 0 | 120 | db8 | 4 | 0.8 | 11 | 0.9973 | 61 | 162 | 1823 | 236 | 175 | 2221 | 0.741525423729 | 0.91838790932 | 0.967622080679
203 | 0 | 180 | db8 | 4 | 0.8 | 11 | 0.995 | 79 | 141 | 1716 | 266 | 187 | 2123 | 0.703007518797 | 0.924071082391 | 0.955988857939
203 | 0 | 180 | db8 | 4 | 0.8 | 11 | 0.9973 | 69 | 153 | 1726 | 244 | 175 | 2123 | 0.717213114754 | 0.91857370942 | 0.961559888579
203 | 0 | 240 | db8 | 4 | 0.8 | 12 | 0.995 | 105 | 121 | 1604 | 302 | 197 | 2027 | 0.652317880795 | 0.929855072464 | 0.938560561732
203 | 0 | 240 | db8 | 4 | 0.8 | 12 | 0.9973 | 94 | 133 | 1615 | 279 | 185 | 2027 | 0.663082437276 | 0.923913043478 | 0.944997074312
203 | 0 | 300 | db8 | 4 | 0.8 | 12 | 0.995 | 122 | 113 | 1509 | 309 | 187 | 1931 | 0.605177993528 | 0.930332922318 | 0.925199264255
203 | 0 | 300 | db8 | 4 | 0.8 | 12 | 0.9973 | 112 | 123 | 1519 | 289 | 177 | 1931 | 0.612456747405 | 0.92509135201 | 0.931330472103
203 | 0 | 120 | db8 | 4 | 0.9 | 17 | 0.995 | 109 | 142 | 1775 | 304 | 195 | 2221 | 0.641447368421 | 0.925925925926 | 0.942144373673
203 | 0 | 120 | db8 | 4 | 0.9 | 17 | 0.9973 | 101 | 153 | 1783 | 285 | 184 | 2221 | 0.645614035088 | 0.92097107438 | 0.946390658174
203 | 0 | 180 | db8 | 4 | 0.9 | 17 | 0.995 | 110 | 131 | 1685 | 307 | 197 | 2123 | 0.641693811075 | 0.927863436123 | 0.938718662953
203 | 0 | 180 | db8 | 4 | 0.9 | 17 | 0.9973 | 102 | 144 | 1693 | 286 | 184 | 2123 | 0.643356643357 | 0.921611322809 | 0.943175487465
203 | 0 | 240 | db8 | 4 | 0.9 | 19 | 0.995 | 158 | 108 | 1551 | 368 | 210 | 2027 | 0.570652173913 | 0.934900542495 | 0.907548273844
203 | 0 | 240 | db8 | 4 | 0.9 | 19 | 0.9973 | 150 | 121 | 1559 | 347 | 197 | 2027 | 0.567723342939 | 0.927976190476 | 0.912229373903
203 | 0 | 300 | db8 | 4 | 0.9 | 17 | 0.995 | 166 | 98 | 1465 | 368 | 202 | 1931 | 0.548913043478 | 0.93730006398 | 0.898221949724
203 | 0 | 300 | db8 | 4 | 0.9 | 17 | 0.9973 | 155 | 107 | 1476 | 348 | 193 | 1931 | 0.554597701149 | 0.932406822489 | 0.904966278357
203 | 1 | 120 | db8 | 4 | 0.7 | 9 | 0.995 | 329 | 223 | 1555 | 443 | 114 | 2221 | 0.257336343115 | 0.874578177728 | 0.825371549894
203 | 1 | 120 | db8 | 4 | 0.7 | 9 | 0.9973 | 305 | 234 | 1579 | 408 | 103 | 2221 | 0.252450980392 | 0.870932156646 | 0.838110403397
203 | 1 | 180 | db8 | 4 | 0.7 | 10 | 0.995 | 357 | 206 | 1438 | 479 | 122 | 2123 | 0.254697286013 | 0.874695863747 | 0.801114206128
203 | 1 | 180 | db8 | 4 | 0.7 | 10 | 0.9973 | 336 | 217 | 1459 | 447 | 111 | 2123 | 0.248322147651 | 0.870525059666 | 0.812813370474
203 | 1 | 240 | db8 | 4 | 0.7 | 11 | 0.995 | 416 | 177 | 1293 | 557 | 141 | 2027 | 0.253141831239 | 0.879591836735 | 0.756582796957
203 | 1 | 240 | db8 | 4 | 0.7 | 11 | 0.9973 | 394 | 195 | 1315 | 517 | 123 | 2027 | 0.237911025145 | 0.870860927152 | 0.769455822118
203 | 1 | 300 | db8 | 4 | 0.7 | 10 | 0.995 | 413 | 170 | 1218 | 543 | 130 | 1931 | 0.2394106814 | 0.877521613833 | 0.74678111588
203 | 1 | 300 | db8 | 4 | 0.7 | 10 | 0.9973 | 390 | 179 | 1241 | 511 | 121 | 1931 | 0.236790606654 | 0.873943661972 | 0.76088289393
203 | 1 | 120 | db8 | 4 | 0.8 | 12 | 0.995 | 363 | 223 | 1521 | 477 | 114 | 2221 | 0.238993710692 | 0.872133027523 | 0.807324840764
203 | 1 | 120 | db8 | 4 | 0.8 | 12 | 0.9973 | 337 | 238 | 1547 | 436 | 99 | 2221 | 0.227064220183 | 0.866666666667 | 0.821125265393
203 | 1 | 180 | db8 | 4 | 0.8 | 13 | 0.995 | 396 | 204 | 1399 | 520 | 124 | 2123 | 0.238461538462 | 0.872738615097 | 0.77938718663
203 | 1 | 180 | db8 | 4 | 0.8 | 13 | 0.9973 | 384 | 213 | 1411 | 499 | 115 | 2123 | 0.230460921844 | 0.868842364532 | 0.786072423398
203 | 1 | 240 | db8 | 4 | 0.8 | 14 | 0.995 | 442 | 152 | 1267 | 608 | 166 | 2027 | 0.273026315789 | 0.892882311487 | 0.741369221767
203 | 1 | 240 | db8 | 4 | 0.8 | 14 | 0.9973 | 416 | 163 | 1293 | 571 | 155 | 2027 | 0.271453590193 | 0.888049450549 | 0.756582796957
203 | 1 | 300 | db8 | 4 | 0.8 | 13 | 0.995 | 444 | 133 | 1187 | 611 | 167 | 1931 | 0.273322422259 | 0.899242424242 | 0.727774371551
203 | 1 | 300 | db8 | 4 | 0.8 | 13 | 0.9973 | 425 | 147 | 1206 | 578 | 153 | 1931 | 0.264705882353 | 0.891352549889 | 0.739423666462
203 | 1 | 120 | db8 | 4 | 0.9 | 18 | 0.995 | 390 | 171 | 1494 | 556 | 166 | 2221 | 0.298561151079 | 0.897297297297 | 0.792993630573
203 | 1 | 120 | db8 | 4 | 0.9 | 18 | 0.9973 | 374 | 180 | 1510 | 531 | 157 | 2221 | 0.295668549906 | 0.89349112426 | 0.801486199575
203 | 1 | 180 | db8 | 4 | 0.9 | 20 | 0.995 | 425 | 148 | 1370 | 605 | 180 | 2123 | 0.297520661157 | 0.902503293808 | 0.763231197772
203 | 1 | 180 | db8 | 4 | 0.9 | 20 | 0.9973 | 410 | 154 | 1385 | 584 | 174 | 2123 | 0.297945205479 | 0.899935022742 | 0.771587743733
203 | 1 | 240 | db8 | 4 | 0.9 | 22 | 0.995 | 484 | 112 | 1225 | 690 | 206 | 2027 | 0.298550724638 | 0.916230366492 | 0.71679344646
203 | 1 | 240 | db8 | 4 | 0.9 | 22 | 0.9973 | 460 | 118 | 1249 | 660 | 200 | 2027 | 0.30303030303 | 0.913679590344 | 0.730836746635
203 | 1 | 300 | db8 | 4 | 0.9 | 18 | 0.995 | 465 | 120 | 1166 | 645 | 180 | 1931 | 0.279069767442 | 0.906687402799 | 0.714898835071
203 | 1 | 300 | db8 | 4 | 0.9 | 18 | 0.9973 | 447 | 131 | 1184 | 616 | 169 | 1931 | 0.274350649351 | 0.900380228137 | 0.725935009197
208 | 0 | 120 | db8 | 4 | 0.7 | 8 | 0.995 | 111 | 664 | 1043 | 180 | 69 | 1887 | 0.383333333333 | 0.611013473931 | 0.903812824957
208 | 0 | 120 | db8 | 4 | 0.7 | 8 | 0.9973 | 102 | 667 | 1052 | 168 | 66 | 1887 | 0.392857142857 | 0.61198371146 | 0.911611785095
208 | 0 | 180 | db8 | 4 | 0.7 | 8 | 0.995 | 137 | 621 | 970 | 211 | 74 | 1802 | 0.350710900474 | 0.609679446889 | 0.876242095754
208 | 0 | 180 | db8 | 4 | 0.7 | 8 | 0.9973 | 128 | 626 | 979 | 197 | 69 | 1802 | 0.350253807107 | 0.609968847352 | 0.884372177055
208 | 0 | 240 | db8 | 4 | 0.7 | 8 | 0.995 | 124 | 595 | 920 | 197 | 73 | 1712 | 0.370558375635 | 0.607260726073 | 0.88122605364
208 | 0 | 240 | db8 | 4 | 0.7 | 8 | 0.9973 | 114 | 599 | 930 | 183 | 69 | 1712 | 0.377049180328 | 0.608240680183 | 0.890804597701
208 | 0 | 300 | db8 | 4 | 0.7 | 8 | 0.995 | 142 | 554 | 850 | 220 | 78 | 1624 | 0.354545454545 | 0.605413105413 | 0.85685483871
208 | 0 | 300 | db8 | 4 | 0.7 | 8 | 0.9973 | 128 | 562 | 864 | 198 | 70 | 1624 | 0.353535353535 | 0.605890603086 | 0.870967741935
208 | 0 | 120 | db8 | 4 | 0.8 | 10 | 0.995 | 128 | 663 | 1026 | 198 | 70 | 1887 | 0.353535353535 | 0.607460035524 | 0.889081455806
208 | 0 | 120 | db8 | 4 | 0.8 | 10 | 0.9973 | 121 | 667 | 1033 | 187 | 66 | 1887 | 0.352941176471 | 0.607647058824 | 0.895147313692
208 | 0 | 180 | db8 | 4 | 0.8 | 10 | 0.995 | 160 | 620 | 947 | 235 | 75 | 1802 | 0.31914893617 | 0.604339502234 | 0.855465221319
208 | 0 | 180 | db8 | 4 | 0.8 | 10 | 0.9973 | 144 | 624 | 963 | 215 | 71 | 1802 | 0.33023255814 | 0.606805293006 | 0.869918699187
208 | 0 | 240 | db8 | 4 | 0.8 | 10 | 0.995 | 149 | 589 | 895 | 228 | 79 | 1712 | 0.34649122807 | 0.603099730458 | 0.857279693487
208 | 0 | 240 | db8 | 4 | 0.8 | 10 | 0.9973 | 137 | 592 | 907 | 213 | 76 | 1712 | 0.356807511737 | 0.605070046698 | 0.86877394636
208 | 0 | 300 | db8 | 4 | 0.8 | 10 | 0.995 | 175 | 531 | 817 | 276 | 101 | 1624 | 0.365942028986 | 0.606083086053 | 0.823588709677
208 | 0 | 300 | db8 | 4 | 0.8 | 10 | 0.9973 | 164 | 539 | 828 | 257 | 93 | 1624 | 0.36186770428 | 0.605705925384 | 0.834677419355
208 | 0 | 120 | db8 | 4 | 0.9 | 12 | 0.995 | 168 | 647 | 986 | 254 | 86 | 1887 | 0.338582677165 | 0.603796693203 | 0.854419410745
208 | 0 | 120 | db8 | 4 | 0.9 | 12 | 0.9973 | 161 | 653 | 993 | 241 | 80 | 1887 | 0.331950207469 | 0.603280680437 | 0.860485268631
208 | 0 | 180 | db8 | 4 | 0.9 | 12 | 0.995 | 203 | 600 | 904 | 298 | 95 | 1802 | 0.318791946309 | 0.601063829787 | 0.816621499548
208 | 0 | 180 | db8 | 4 | 0.9 | 12 | 0.9973 | 192 | 605 | 915 | 282 | 90 | 1802 | 0.31914893617 | 0.601973684211 | 0.826558265583
208 | 0 | 240 | db8 | 4 | 0.9 | 13 | 0.995 | 190 | 570 | 854 | 288 | 98 | 1712 | 0.340277777778 | 0.599719101124 | 0.818007662835
208 | 0 | 240 | db8 | 4 | 0.9 | 13 | 0.9973 | 177 | 575 | 867 | 270 | 93 | 1712 | 0.344444444444 | 0.601248266297 | 0.830459770115
208 | 0 | 300 | db8 | 4 | 0.9 | 12 | 0.995 | 202 | 536 | 790 | 298 | 96 | 1624 | 0.322147651007 | 0.595776772247 | 0.796370967742
208 | 0 | 300 | db8 | 4 | 0.9 | 12 | 0.9973 | 181 | 543 | 811 | 270 | 89 | 1624 | 0.32962962963 | 0.598966026588 | 0.817540322581
208 | 1 | 120 | db8 | 4 | 0.7 | 7 | 0.995 | 95 | 628 | 1059 | 200 | 105 | 1887 | 0.525 | 0.627741553053 | 0.917677642981
208 | 1 | 120 | db8 | 4 | 0.7 | 7 | 0.9973 | 88 | 635 | 1066 | 186 | 98 | 1887 | 0.52688172043 | 0.626690182246 | 0.923743500867
208 | 1 | 180 | db8 | 4 | 0.7 | 7 | 0.995 | 117 | 569 | 990 | 243 | 126 | 1802 | 0.518518518519 | 0.635022450289 | 0.894308943089
208 | 1 | 180 | db8 | 4 | 0.7 | 7 | 0.9973 | 112 | 577 | 995 | 230 | 118 | 1802 | 0.513043478261 | 0.632951653944 | 0.898825654923
208 | 1 | 240 | db8 | 4 | 0.7 | 7 | 0.995 | 120 | 538 | 924 | 250 | 130 | 1712 | 0.52 | 0.632010943912 | 0.885057471264
208 | 1 | 240 | db8 | 4 | 0.7 | 7 | 0.9973 | 112 | 544 | 932 | 236 | 124 | 1712 | 0.525423728814 | 0.631436314363 | 0.892720306513
208 | 1 | 300 | db8 | 4 | 0.7 | 7 | 0.995 | 131 | 520 | 861 | 243 | 112 | 1624 | 0.460905349794 | 0.623461259957 | 0.867943548387
208 | 1 | 300 | db8 | 4 | 0.7 | 7 | 0.9973 | 123 | 530 | 869 | 225 | 102 | 1624 | 0.453333333333 | 0.621157969979 | 0.876008064516
208 | 1 | 120 | db8 | 4 | 0.8 | 10 | 0.995 | 128 | 620 | 1026 | 241 | 113 | 1887 | 0.46887966805 | 0.623329283111 | 0.889081455806
208 | 1 | 120 | db8 | 4 | 0.8 | 10 | 0.9973 | 123 | 627 | 1031 | 229 | 106 | 1887 | 0.46288209607 | 0.621833534379 | 0.893414211438
208 | 1 | 180 | db8 | 4 | 0.8 | 10 | 0.995 | 165 | 564 | 942 | 296 | 131 | 1802 | 0.442567567568 | 0.625498007968 | 0.850948509485
208 | 1 | 180 | db8 | 4 | 0.8 | 10 | 0.9973 | 155 | 574 | 952 | 276 | 121 | 1802 | 0.438405797101 | 0.623853211009 | 0.859981933153
208 | 1 | 240 | db8 | 4 | 0.8 | 10 | 0.995 | 157 | 516 | 887 | 309 | 152 | 1712 | 0.491909385113 | 0.632216678546 | 0.849616858238
208 | 1 | 240 | db8 | 4 | 0.8 | 10 | 0.9973 | 151 | 529 | 893 | 290 | 139 | 1712 | 0.479310344828 | 0.627988748242 | 0.855363984674
208 | 1 | 300 | db8 | 4 | 0.8 | 9 | 0.995 | 152 | 501 | 840 | 283 | 131 | 1624 | 0.462897526502 | 0.626398210291 | 0.846774193548
208 | 1 | 300 | db8 | 4 | 0.8 | 9 | 0.9973 | 144 | 515 | 848 | 261 | 117 | 1624 | 0.448275862069 | 0.622157006603 | 0.854838709677
208 | 1 | 120 | db8 | 4 | 0.9 | 15 | 0.995 | 179 | 613 | 975 | 299 | 120 | 1887 | 0.401337792642 | 0.613979848866 | 0.844887348354
208 | 1 | 120 | db8 | 4 | 0.9 | 15 | 0.9973 | 164 | 622 | 990 | 275 | 111 | 1887 | 0.403636363636 | 0.614143920596 | 0.857885615251
208 | 1 | 180 | db8 | 4 | 0.9 | 15 | 0.995 | 208 | 542 | 899 | 361 | 153 | 1802 | 0.423822714681 | 0.623872310895 | 0.812104787715
208 | 1 | 180 | db8 | 4 | 0.9 | 15 | 0.9973 | 195 | 561 | 912 | 329 | 134 | 1802 | 0.407294832827 | 0.619144602851 | 0.823848238482
208 | 1 | 240 | db8 | 4 | 0.9 | 15 | 0.995 | 211 | 505 | 833 | 374 | 163 | 1712 | 0.435828877005 | 0.622571001495 | 0.797892720307
208 | 1 | 240 | db8 | 4 | 0.9 | 15 | 0.9973 | 200 | 519 | 844 | 349 | 149 | 1712 | 0.426934097421 | 0.619222303742 | 0.808429118774
208 | 1 | 300 | db8 | 4 | 0.9 | 15 | 0.995 | 225 | 466 | 767 | 391 | 166 | 1624 | 0.424552429668 | 0.622060016221 | 0.773185483871
208 | 1 | 300 | db8 | 4 | 0.9 | 15 | 0.9973 | 216 | 479 | 776 | 369 | 153 | 1624 | 0.414634146341 | 0.618326693227 | 0.782258064516
210 | 0 | 120 | db8 | 4 | 0.7 | 6 | 0.995 | 89 | 5 | 1707 | 227 | 138 | 1939 | 0.607929515419 | 0.997079439252 | 0.950445434298
210 | 0 | 120 | db8 | 4 | 0.7 | 6 | 0.9973 | 79 | 8 | 1717 | 214 | 135 | 1939 | 0.630841121495 | 0.995362318841 | 0.956013363029
210 | 0 | 180 | db8 | 4 | 0.7 | 9 | 0.995 | 63 | 11 | 1656 | 185 | 122 | 1852 | 0.659459459459 | 0.993401319736 | 0.96335078534
210 | 0 | 180 | db8 | 4 | 0.7 | 9 | 0.9973 | 62 | 17 | 1657 | 178 | 116 | 1852 | 0.651685393258 | 0.989844683393 | 0.963932518906
210 | 0 | 240 | db8 | 4 | 0.7 | 8 | 0.995 | 11 | 31 | 1624 | 108 | 97 | 1763 | 0.898148148148 | 0.981268882175 | 0.993272171254
210 | 0 | 240 | db8 | 4 | 0.7 | 8 | 0.9973 | 9 | 39 | 1626 | 98 | 89 | 1763 | 0.908163265306 | 0.976576576577 | 0.994495412844
210 | 0 | 300 | db8 | 4 | 0.7 | 8 | 0.995 | 10 | 19 | 1543 | 114 | 104 | 1676 | 0.912280701754 | 0.987836107554 | 0.993560849968
210 | 0 | 300 | db8 | 4 | 0.7 | 8 | 0.9973 | 8 | 28 | 1545 | 103 | 95 | 1676 | 0.922330097087 | 0.982199618563 | 0.994848679974
210 | 0 | 120 | db8 | 4 | 0.8 | 9 | 0.995 | 120 | 4 | 1676 | 259 | 139 | 1939 | 0.53667953668 | 0.997619047619 | 0.933184855234
210 | 0 | 120 | db8 | 4 | 0.8 | 9 | 0.9973 | 106 | 4 | 1690 | 245 | 139 | 1939 | 0.567346938776 | 0.997638724911 | 0.940979955457
210 | 0 | 180 | db8 | 4 | 0.8 | 12 | 0.995 | 85 | 6 | 1634 | 212 | 127 | 1852 | 0.599056603774 | 0.996341463415 | 0.950552646888
210 | 0 | 180 | db8 | 4 | 0.8 | 12 | 0.9973 | 81 | 7 | 1638 | 207 | 126 | 1852 | 0.608695652174 | 0.995744680851 | 0.952879581152
210 | 0 | 240 | db8 | 4 | 0.8 | 11 | 0.995 | 12 | 39 | 1623 | 101 | 89 | 1763 | 0.881188118812 | 0.976534296029 | 0.992660550459
210 | 0 | 240 | db8 | 4 | 0.8 | 11 | 0.9973 | 12 | 42 | 1623 | 98 | 86 | 1763 | 0.877551020408 | 0.974774774775 | 0.992660550459
210 | 0 | 300 | db8 | 4 | 0.8 | 11 | 0.995 | 16 | 30 | 1537 | 109 | 93 | 1676 | 0.853211009174 | 0.980855137205 | 0.989697359948
210 | 0 | 300 | db8 | 4 | 0.8 | 11 | 0.9973 | 14 | 39 | 1539 | 98 | 84 | 1676 | 0.857142857143 | 0.975285171103 | 0.990985189955
210 | 0 | 120 | db8 | 4 | 0.9 | 16 | 0.995 | 105 | 42 | 1691 | 206 | 101 | 1939 | 0.490291262136 | 0.97576457011 | 0.94153674833
210 | 0 | 120 | db8 | 4 | 0.9 | 16 | 0.9973 | 98 | 43 | 1698 | 198 | 100 | 1939 | 0.505050505051 | 0.975301550833 | 0.945434298441
210 | 0 | 180 | db8 | 4 | 0.9 | 18 | 0.995 | 125 | 1 | 1594 | 257 | 132 | 1852 | 0.513618677043 | 0.999373040752 | 0.927283304247
210 | 0 | 180 | db8 | 4 | 0.9 | 18 | 0.9973 | 115 | 2 | 1604 | 246 | 131 | 1852 | 0.532520325203 | 0.998754669988 | 0.933100639907
210 | 0 | 240 | db8 | 4 | 0.9 | 16 | 0.995 | 22 | 8 | 1613 | 142 | 120 | 1763 | 0.845070422535 | 0.99506477483 | 0.986544342508
210 | 0 | 240 | db8 | 4 | 0.9 | 16 | 0.9973 | 21 | 14 | 1614 | 135 | 114 | 1763 | 0.844444444444 | 0.9914004914 | 0.987155963303
210 | 0 | 300 | db8 | 4 | 0.9 | 16 | 0.995 | 17 | 7 | 1536 | 133 | 116 | 1676 | 0.872180451128 | 0.99546338302 | 0.989053444945
210 | 0 | 300 | db8 | 4 | 0.9 | 16 | 0.9973 | 16 | 12 | 1537 | 127 | 111 | 1676 | 0.874015748031 | 0.992253066495 | 0.989697359948
210 | 1 | 120 | db8 | 4 | 0.7 | 10 | 0.995 | 92 | 5 | 1704 | 230 | 138 | 1939 | 0.6 | 0.997074312463 | 0.948775055679
210 | 1 | 120 | db8 | 4 | 0.7 | 10 | 0.9973 | 84 | 5 | 1712 | 222 | 138 | 1939 | 0.621621621622 | 0.997087944089 | 0.953229398664
210 | 1 | 180 | db8 | 4 | 0.7 | 9 | 0.995 | 68 | 5 | 1651 | 196 | 128 | 1852 | 0.65306122449 | 0.996980676329 | 0.96044211751
210 | 1 | 180 | db8 | 4 | 0.7 | 9 | 0.9973 | 61 | 8 | 1658 | 186 | 125 | 1852 | 0.672043010753 | 0.995198079232 | 0.964514252472
210 | 1 | 240 | db8 | 4 | 0.7 | 7 | 0.995 | 7 | 42 | 1628 | 93 | 86 | 1763 | 0.924731182796 | 0.974850299401 | 0.995718654434
210 | 1 | 240 | db8 | 4 | 0.7 | 7 | 0.9973 | 6 | 45 | 1629 | 89 | 83 | 1763 | 0.932584269663 | 0.97311827957 | 0.996330275229
210 | 1 | 300 | db8 | 4 | 0.7 | 7 | 0.995 | 7 | 35 | 1546 | 95 | 88 | 1676 | 0.926315789474 | 0.977862112587 | 0.995492594977
210 | 1 | 300 | db8 | 4 | 0.7 | 7 | 0.9973 | 7 | 42 | 1546 | 88 | 81 | 1676 | 0.920454545455 | 0.97355163728 | 0.995492594977
210 | 1 | 120 | db8 | 4 | 0.8 | 14 | 0.995 | 126 | 4 | 1670 | 265 | 139 | 1939 | 0.524528301887 | 0.99761051374 | 0.929844097996
210 | 1 | 120 | db8 | 4 | 0.8 | 14 | 0.9973 | 112 | 5 | 1684 | 250 | 138 | 1939 | 0.552 | 0.997039668443 | 0.937639198218
210 | 1 | 180 | db8 | 4 | 0.8 | 12 | 0.995 | 100 | 4 | 1619 | 229 | 129 | 1852 | 0.563318777293 | 0.997535428219 | 0.941826643397
210 | 1 | 180 | db8 | 4 | 0.8 | 12 | 0.9973 | 90 | 5 | 1629 | 218 | 128 | 1852 | 0.587155963303 | 0.99694002448 | 0.947643979058
210 | 1 | 240 | db8 | 4 | 0.8 | 10 | 0.995 | 10 | 31 | 1625 | 107 | 97 | 1763 | 0.906542056075 | 0.981280193237 | 0.993883792049
210 | 1 | 240 | db8 | 4 | 0.8 | 10 | 0.9973 | 10 | 40 | 1625 | 98 | 88 | 1763 | 0.897959183673 | 0.975975975976 | 0.993883792049
210 | 1 | 300 | db8 | 4 | 0.8 | 10 | 0.995 | 9 | 25 | 1544 | 107 | 98 | 1676 | 0.915887850467 | 0.984066284257 | 0.994204764971
210 | 1 | 300 | db8 | 4 | 0.8 | 10 | 0.9973 | 9 | 30 | 1544 | 102 | 93 | 1676 | 0.911764705882 | 0.980940279543 | 0.994204764971
210 | 1 | 120 | db8 | 4 | 0.9 | 19 | 0.995 | 61 | 53 | 1735 | 151 | 90 | 1939 | 0.596026490066 | 0.970357941834 | 0.966035634744
210 | 1 | 120 | db8 | 4 | 0.9 | 19 | 0.9973 | 57 | 53 | 1739 | 147 | 90 | 1939 | 0.612244897959 | 0.970424107143 | 0.968262806236
210 | 1 | 180 | db8 | 4 | 0.9 | 15 | 0.995 | 290 | 2 | 1429 | 421 | 131 | 1852 | 0.311163895487 | 0.998602375961 | 0.831297265852
210 | 1 | 180 | db8 | 4 | 0.9 | 15 | 0.9973 | 265 | 2 | 1454 | 396 | 131 | 1852 | 0.330808080808 | 0.998626373626 | 0.845840605003
210 | 1 | 240 | db8 | 4 | 0.9 | 16 | 0.995 | 16 | 26 | 1619 | 118 | 102 | 1763 | 0.864406779661 | 0.984194528875 | 0.990214067278
210 | 1 | 240 | db8 | 4 | 0.9 | 16 | 0.9973 | 16 | 28 | 1619 | 116 | 100 | 1763 | 0.862068965517 | 0.982999392835 | 0.990214067278
210 | 1 | 300 | db8 | 4 | 0.9 | 16 | 0.995 | 15 | 23 | 1538 | 115 | 100 | 1676 | 0.869565217391 | 0.985265855221 | 0.990341274952
210 | 1 | 300 | db8 | 4 | 0.9 | 16 | 0.9973 | 14 | 26 | 1539 | 111 | 97 | 1676 | 0.873873873874 | 0.98338658147 | 0.990985189955
213 | 0 | 180 | db8 | 4 | 0.7 | 9 | 0.995 | 222 | 1 | 1609 | 392 | 170 | 2002 | 0.433673469388 | 0.999378881988 | 0.878754778809
213 | 0 | 180 | db8 | 4 | 0.7 | 9 | 0.9973 | 189 | 2 | 1642 | 358 | 169 | 2002 | 0.472067039106 | 0.998783454988 | 0.896777717094
213 | 0 | 240 | db8 | 4 | 0.7 | 8 | 0.995 | 111 | 4 | 1656 | 272 | 161 | 1932 | 0.591911764706 | 0.997590361446 | 0.937181663837
213 | 0 | 240 | db8 | 4 | 0.7 | 8 | 0.9973 | 96 | 6 | 1671 | 255 | 159 | 1932 | 0.623529411765 | 0.996422182469 | 0.945670628183
213 | 0 | 300 | db8 | 4 | 0.7 | 9 | 0.995 | 80 | 5 | 1600 | 230 | 150 | 1835 | 0.652173913043 | 0.996884735202 | 0.952380952381
213 | 0 | 300 | db8 | 4 | 0.7 | 9 | 0.9973 | 63 | 7 | 1617 | 211 | 148 | 1835 | 0.701421800948 | 0.995689655172 | 0.9625
213 | 0 | 180 | db8 | 4 | 0.8 | 13 | 0.995 | 415 | 0 | 1416 | 586 | 171 | 2002 | 0.29180887372 | 1.0 | 0.773347897324
213 | 0 | 180 | db8 | 4 | 0.8 | 13 | 0.9973 | 354 | 1 | 1477 | 524 | 170 | 2002 | 0.324427480916 | 0.999323410014 | 0.806663025669
213 | 0 | 240 | db8 | 4 | 0.8 | 12 | 0.995 | 219 | 1 | 1548 | 383 | 164 | 1932 | 0.42819843342 | 0.999354422208 | 0.876061120543
213 | 0 | 240 | db8 | 4 | 0.8 | 12 | 0.9973 | 188 | 1 | 1579 | 352 | 164 | 1932 | 0.465909090909 | 0.999367088608 | 0.893604980192
213 | 0 | 300 | db8 | 4 | 0.8 | 13 | 0.995 | 106 | 0 | 1574 | 261 | 155 | 1835 | 0.593869731801 | 1.0 | 0.936904761905
213 | 0 | 300 | db8 | 4 | 0.8 | 13 | 0.9973 | 83 | 0 | 1597 | 238 | 155 | 1835 | 0.651260504202 | 1.0 | 0.950595238095
213 | 0 | 180 | db8 | 4 | 0.9 | 21 | 0.995 | 600 | 0 | 1231 | 771 | 171 | 2002 | 0.221789883268 | 1.0 | 0.672310212998
213 | 0 | 180 | db8 | 4 | 0.9 | 21 | 0.9973 | 543 | 0 | 1288 | 714 | 171 | 2002 | 0.239495798319 | 1.0 | 0.703440742764
213 | 0 | 240 | db8 | 4 | 0.9 | 19 | 0.995 | 350 | 0 | 1417 | 515 | 165 | 1932 | 0.320388349515 | 1.0 | 0.801924165252
213 | 0 | 240 | db8 | 4 | 0.9 | 19 | 0.9973 | 309 | 0 | 1458 | 474 | 165 | 1932 | 0.348101265823 | 1.0 | 0.825127334465
213 | 0 | 300 | db8 | 4 | 0.9 | 21 | 0.995 | 231 | 0 | 1449 | 386 | 155 | 1835 | 0.401554404145 | 1.0 | 0.8625
213 | 0 | 300 | db8 | 4 | 0.9 | 21 | 0.9973 | 205 | 0 | 1475 | 360 | 155 | 1835 | 0.430555555556 | 1.0 | 0.877976190476
213 | 1 | 180 | db8 | 4 | 0.7 | 6 | 0.995 | 119 | 0 | 1712 | 290 | 171 | 2002 | 0.589655172414 | 1.0 | 0.935008192245
213 | 1 | 180 | db8 | 4 | 0.7 | 6 | 0.9973 | 96 | 0 | 1735 | 267 | 171 | 2002 | 0.640449438202 | 1.0 | 0.94756963408
213 | 1 | 240 | db8 | 4 | 0.7 | 6 | 0.995 | 90 | 0 | 1677 | 255 | 165 | 1932 | 0.647058823529 | 1.0 | 0.949066213922
213 | 1 | 240 | db8 | 4 | 0.7 | 6 | 0.9973 | 74 | 0 | 1693 | 239 | 165 | 1932 | 0.690376569038 | 1.0 | 0.958121109225
213 | 1 | 300 | db8 | 4 | 0.7 | 6 | 0.995 | 68 | 0 | 1612 | 223 | 155 | 1835 | 0.695067264574 | 1.0 | 0.959523809524
213 | 1 | 300 | db8 | 4 | 0.7 | 6 | 0.9973 | 55 | 0 | 1625 | 210 | 155 | 1835 | 0.738095238095 | 1.0 | 0.967261904762
213 | 1 | 180 | db8 | 4 | 0.8 | 9 | 0.995 | 114 | 0 | 1717 | 285 | 171 | 2002 | 0.6 | 1.0 | 0.93773894047
213 | 1 | 180 | db8 | 4 | 0.8 | 9 | 0.9973 | 91 | 0 | 1740 | 262 | 171 | 2002 | 0.652671755725 | 1.0 | 0.950300382305
213 | 1 | 240 | db8 | 4 | 0.8 | 8 | 0.995 | 85 | 0 | 1682 | 250 | 165 | 1932 | 0.66 | 1.0 | 0.951895868704
213 | 1 | 240 | db8 | 4 | 0.8 | 8 | 0.9973 | 74 | 0 | 1693 | 239 | 165 | 1932 | 0.690376569038 | 1.0 | 0.958121109225
213 | 1 | 300 | db8 | 4 | 0.8 | 8 | 0.995 | 71 | 0 | 1609 | 226 | 155 | 1835 | 0.685840707965 | 1.0 | 0.957738095238
213 | 1 | 300 | db8 | 4 | 0.8 | 8 | 0.9973 | 62 | 0 | 1618 | 217 | 155 | 1835 | 0.714285714286 | 1.0 | 0.963095238095
213 | 1 | 180 | db8 | 4 | 0.9 | 16 | 0.995 | 156 | 0 | 1675 | 327 | 171 | 2002 | 0.522935779817 | 1.0 | 0.91480065538
213 | 1 | 180 | db8 | 4 | 0.9 | 16 | 0.9973 | 140 | 0 | 1691 | 311 | 171 | 2002 | 0.549839228296 | 1.0 | 0.9235390497
213 | 1 | 240 | db8 | 4 | 0.9 | 15 | 0.995 | 100 | 0 | 1667 | 265 | 165 | 1932 | 0.622641509434 | 1.0 | 0.943406904358
213 | 1 | 240 | db8 | 4 | 0.9 | 15 | 0.9973 | 90 | 0 | 1677 | 255 | 165 | 1932 | 0.647058823529 | 1.0 | 0.949066213922
213 | 1 | 300 | db8 | 4 | 0.9 | 13 | 0.995 | 87 | 0 | 1593 | 242 | 155 | 1835 | 0.640495867769 | 1.0 | 0.948214285714
213 | 1 | 300 | db8 | 4 | 0.9 | 13 | 0.9973 | 82 | 0 | 1598 | 237 | 155 | 1835 | 0.654008438819 | 1.0 | 0.95119047619
215 | 0 | 120 | db8 | 4 | 0.7 | 8 | 0.995 | 84 | 2 | 2294 | 192 | 108 | 2488 | 0.5625 | 0.999128919861 | 0.964676198486
215 | 0 | 120 | db8 | 4 | 0.7 | 8 | 0.9973 | 76 | 3 | 2302 | 183 | 107 | 2488 | 0.584699453552 | 0.998698481562 | 0.968040370059
215 | 0 | 180 | db8 | 4 | 0.7 | 8 | 0.995 | 66 | 4 | 2207 | 162 | 96 | 2373 | 0.592592592593 | 0.998190863863 | 0.970963484382
215 | 0 | 180 | db8 | 4 | 0.7 | 8 | 0.9973 | 50 | 5 | 2223 | 145 | 95 | 2373 | 0.655172413793 | 0.997755834829 | 0.978002639683
215 | 0 | 240 | db8 | 4 | 0.7 | 7 | 0.995 | 4 | 5 | 2161 | 93 | 89 | 2259 | 0.956989247312 | 0.997691597415 | 0.998152424942
215 | 0 | 240 | db8 | 4 | 0.7 | 7 | 0.9973 | 3 | 7 | 2162 | 90 | 87 | 2259 | 0.966666666667 | 0.996772706316 | 0.998614318707
215 | 0 | 300 | db8 | 4 | 0.7 | 7 | 0.995 | 2 | 5 | 2052 | 90 | 88 | 2147 | 0.977777777778 | 0.997569275644 | 0.999026290166
215 | 0 | 300 | db8 | 4 | 0.7 | 7 | 0.9973 | 2 | 6 | 2052 | 89 | 87 | 2147 | 0.977528089888 | 0.997084548105 | 0.999026290166
215 | 0 | 120 | db8 | 4 | 0.8 | 11 | 0.995 | 182 | 2 | 2196 | 290 | 108 | 2488 | 0.372413793103 | 0.999090081893 | 0.92346509672
215 | 0 | 120 | db8 | 4 | 0.8 | 11 | 0.9973 | 159 | 3 | 2219 | 266 | 107 | 2488 | 0.402255639098 | 0.998649864986 | 0.933137089992
215 | 0 | 180 | db8 | 4 | 0.8 | 11 | 0.995 | 173 | 3 | 2100 | 270 | 97 | 2373 | 0.359259259259 | 0.998573466476 | 0.923889133304
215 | 0 | 180 | db8 | 4 | 0.8 | 11 | 0.9973 | 147 | 5 | 2126 | 242 | 95 | 2373 | 0.392561983471 | 0.997653683717 | 0.935327760669
215 | 0 | 240 | db8 | 4 | 0.8 | 10 | 0.995 | 16 | 7 | 2149 | 103 | 87 | 2259 | 0.844660194175 | 0.996753246753 | 0.992609699769
215 | 0 | 240 | db8 | 4 | 0.8 | 10 | 0.9973 | 11 | 7 | 2154 | 98 | 87 | 2259 | 0.887755102041 | 0.996760758908 | 0.994919168591
215 | 0 | 300 | db8 | 4 | 0.8 | 10 | 0.995 | 5 | 6 | 2049 | 92 | 87 | 2147 | 0.945652173913 | 0.997080291971 | 0.997565725414
215 | 0 | 300 | db8 | 4 | 0.8 | 10 | 0.9973 | 4 | 7 | 2050 | 90 | 86 | 2147 | 0.955555555556 | 0.996596985902 | 0.998052580331
215 | 0 | 120 | db8 | 4 | 0.9 | 17 | 0.995 | 242 | 0 | 2136 | 352 | 110 | 2488 | 0.3125 | 1.0 | 0.898233809924
215 | 0 | 120 | db8 | 4 | 0.9 | 17 | 0.9973 | 221 | 0 | 2157 | 331 | 110 | 2488 | 0.332326283988 | 1.0 | 0.907064760303
215 | 0 | 180 | db8 | 4 | 0.9 | 18 | 0.995 | 275 | 1 | 1998 | 374 | 99 | 2373 | 0.264705882353 | 0.999499749875 | 0.879014518258
215 | 0 | 180 | db8 | 4 | 0.9 | 18 | 0.9973 | 246 | 1 | 2027 | 345 | 99 | 2373 | 0.286956521739 | 0.999506903353 | 0.891772987242
215 | 0 | 240 | db8 | 4 | 0.9 | 15 | 0.995 | 30 | 1 | 2135 | 123 | 93 | 2259 | 0.756097560976 | 0.999531835206 | 0.986143187067
215 | 0 | 240 | db8 | 4 | 0.9 | 15 | 0.9973 | 22 | 2 | 2143 | 114 | 92 | 2259 | 0.80701754386 | 0.999067599068 | 0.989838337182
215 | 0 | 300 | db8 | 4 | 0.9 | 15 | 0.995 | 9 | 1 | 2045 | 101 | 92 | 2147 | 0.910891089109 | 0.999511241447 | 0.995618305745
215 | 0 | 300 | db8 | 4 | 0.9 | 15 | 0.9973 | 7 | 2 | 2047 | 98 | 91 | 2147 | 0.928571428571 | 0.999023914104 | 0.996592015579
215 | 1 | 120 | db8 | 4 | 0.7 | 9 | 0.995 | 89 | 23 | 2289 | 176 | 87 | 2488 | 0.494318181818 | 0.990051903114 | 0.962573591253
215 | 1 | 120 | db8 | 4 | 0.7 | 9 | 0.9973 | 78 | 30 | 2300 | 158 | 80 | 2488 | 0.506329113924 | 0.987124463519 | 0.967199327166
215 | 1 | 180 | db8 | 4 | 0.7 | 9 | 0.995 | 88 | 35 | 2185 | 153 | 65 | 2373 | 0.424836601307 | 0.984234234234 | 0.961284645842
215 | 1 | 180 | db8 | 4 | 0.7 | 9 | 0.9973 | 80 | 39 | 2193 | 141 | 61 | 2373 | 0.432624113475 | 0.98252688172 | 0.964804223493
215 | 1 | 240 | db8 | 4 | 0.7 | 11 | 0.995 | 32 | 33 | 2133 | 93 | 61 | 2259 | 0.655913978495 | 0.984764542936 | 0.985219399538
215 | 1 | 240 | db8 | 4 | 0.7 | 11 | 0.9973 | 29 | 39 | 2136 | 84 | 55 | 2259 | 0.654761904762 | 0.982068965517 | 0.986605080831
215 | 1 | 300 | db8 | 4 | 0.7 | 11 | 0.995 | 25 | 21 | 2029 | 97 | 72 | 2147 | 0.742268041237 | 0.989756097561 | 0.987828627069
215 | 1 | 300 | db8 | 4 | 0.7 | 11 | 0.9973 | 22 | 23 | 2032 | 92 | 70 | 2147 | 0.760869565217 | 0.988807785888 | 0.989289191821
215 | 1 | 120 | db8 | 4 | 0.8 | 12 | 0.995 | 109 | 27 | 2269 | 192 | 83 | 2488 | 0.432291666667 | 0.988240418118 | 0.954163162321
215 | 1 | 120 | db8 | 4 | 0.8 | 12 | 0.9973 | 103 | 35 | 2275 | 178 | 75 | 2488 | 0.421348314607 | 0.984848484848 | 0.956686291001
215 | 1 | 180 | db8 | 4 | 0.8 | 12 | 0.995 | 108 | 14 | 2165 | 194 | 86 | 2373 | 0.443298969072 | 0.993575034419 | 0.952485701716
215 | 1 | 180 | db8 | 4 | 0.8 | 12 | 0.9973 | 100 | 21 | 2173 | 179 | 79 | 2373 | 0.441340782123 | 0.990428441203 | 0.956005279366
215 | 1 | 240 | db8 | 4 | 0.8 | 15 | 0.995 | 38 | 14 | 2127 | 118 | 80 | 2259 | 0.677966101695 | 0.993460999533 | 0.982448036952
215 | 1 | 240 | db8 | 4 | 0.8 | 15 | 0.9973 | 35 | 17 | 2130 | 112 | 77 | 2259 | 0.6875 | 0.992081974849 | 0.983833718245
215 | 1 | 300 | db8 | 4 | 0.8 | 14 | 0.995 | 35 | 14 | 2019 | 114 | 79 | 2147 | 0.69298245614 | 0.993113625184 | 0.982960077897
215 | 1 | 300 | db8 | 4 | 0.8 | 14 | 0.9973 | 29 | 16 | 2025 | 106 | 77 | 2147 | 0.72641509434 | 0.992160705537 | 0.9858812074
215 | 1 | 120 | db8 | 4 | 0.9 | 20 | 0.995 | 177 | 3 | 2201 | 284 | 107 | 2488 | 0.37676056338 | 0.998638838475 | 0.925567703953
215 | 1 | 120 | db8 | 4 | 0.9 | 20 | 0.9973 | 169 | 4 | 2209 | 275 | 106 | 2488 | 0.385454545455 | 0.99819249887 | 0.928931875526
215 | 1 | 180 | db8 | 4 | 0.9 | 20 | 0.995 | 180 | 9 | 2093 | 271 | 91 | 2373 | 0.335793357934 | 0.995718363463 | 0.92080950286
215 | 1 | 180 | db8 | 4 | 0.9 | 20 | 0.9973 | 167 | 11 | 2106 | 256 | 89 | 2373 | 0.34765625 | 0.994803967879 | 0.926528816542
215 | 1 | 240 | db8 | 4 | 0.9 | 23 | 0.995 | 58 | 9 | 2107 | 143 | 85 | 2259 | 0.594405594406 | 0.995746691871 | 0.973210161663
215 | 1 | 240 | db8 | 4 | 0.9 | 23 | 0.9973 | 53 | 12 | 2112 | 135 | 82 | 2259 | 0.607407407407 | 0.994350282486 | 0.975519630485
215 | 1 | 300 | db8 | 4 | 0.9 | 21 | 0.995 | 42 | 6 | 2012 | 129 | 87 | 2147 | 0.674418604651 | 0.997026759167 | 0.979552093476
215 | 1 | 300 | db8 | 4 | 0.9 | 21 | 0.9973 | 41 | 9 | 2013 | 125 | 84 | 2147 | 0.672 | 0.995548961424 | 0.980038948393
219 | 0 | 120 | db8 | 4 | 0.7 | 6 | 0.995 | 576 | 3 | 940 | 615 | 39 | 1558 | 0.0634146341463 | 0.996818663839 | 0.620052770449
219 | 0 | 120 | db8 | 4 | 0.7 | 6 | 0.9973 | 543 | 5 | 973 | 580 | 37 | 1558 | 0.0637931034483 | 0.994887525562 | 0.641820580475
219 | 0 | 180 | db8 | 4 | 0.7 | 6 | 0.995 | 642 | 3 | 800 | 680 | 38 | 1483 | 0.0558823529412 | 0.996264009963 | 0.554785020804
219 | 0 | 180 | db8 | 4 | 0.7 | 6 | 0.9973 | 606 | 3 | 836 | 644 | 38 | 1483 | 0.0590062111801 | 0.99642431466 | 0.579750346741
219 | 0 | 240 | db8 | 4 | 0.7 | 6 | 0.995 | 566 | 3 | 802 | 602 | 36 | 1407 | 0.0598006644518 | 0.996273291925 | 0.586257309942
219 | 0 | 240 | db8 | 4 | 0.7 | 6 | 0.9973 | 530 | 3 | 838 | 566 | 36 | 1407 | 0.0636042402827 | 0.996432818074 | 0.612573099415
219 | 0 | 300 | db8 | 4 | 0.7 | 6 | 0.995 | 411 | 3 | 881 | 446 | 35 | 1330 | 0.0784753363229 | 0.996606334842 | 0.681888544892
219 | 0 | 300 | db8 | 4 | 0.7 | 6 | 0.9973 | 366 | 3 | 926 | 401 | 35 | 1330 | 0.0872817955112 | 0.996770721206 | 0.716718266254
219 | 0 | 120 | db8 | 4 | 0.8 | 9 | 0.995 | 626 | 1 | 890 | 667 | 41 | 1558 | 0.0614692653673 | 0.998877665544 | 0.587071240106
219 | 0 | 120 | db8 | 4 | 0.8 | 9 | 0.9973 | 594 | 2 | 922 | 634 | 40 | 1558 | 0.0630914826498 | 0.997835497835 | 0.608179419525
219 | 0 | 180 | db8 | 4 | 0.8 | 9 | 0.995 | 653 | 0 | 789 | 694 | 41 | 1483 | 0.0590778097983 | 1.0 | 0.547156726768
219 | 0 | 180 | db8 | 4 | 0.8 | 9 | 0.9973 | 621 | 0 | 821 | 662 | 41 | 1483 | 0.0619335347432 | 1.0 | 0.569348127601
219 | 0 | 240 | db8 | 4 | 0.8 | 9 | 0.995 | 569 | 0 | 799 | 608 | 39 | 1407 | 0.0641447368421 | 1.0 | 0.584064327485
219 | 0 | 240 | db8 | 4 | 0.8 | 9 | 0.9973 | 531 | 0 | 837 | 570 | 39 | 1407 | 0.0684210526316 | 1.0 | 0.611842105263
219 | 0 | 300 | db8 | 4 | 0.8 | 9 | 0.995 | 388 | 0 | 904 | 426 | 38 | 1330 | 0.0892018779343 | 1.0 | 0.699690402477
219 | 0 | 300 | db8 | 4 | 0.8 | 9 | 0.9973 | 355 | 0 | 937 | 393 | 38 | 1330 | 0.0966921119593 | 1.0 | 0.725232198142
219 | 0 | 120 | db8 | 4 | 0.9 | 13 | 0.995 | 687 | 2 | 829 | 727 | 40 | 1558 | 0.0550206327373 | 0.997593261131 | 0.546833773087
219 | 0 | 120 | db8 | 4 | 0.9 | 13 | 0.9973 | 639 | 2 | 877 | 679 | 40 | 1558 | 0.0589101620029 | 0.997724687144 | 0.578496042216
219 | 0 | 180 | db8 | 4 | 0.9 | 13 | 0.995 | 731 | 0 | 711 | 772 | 41 | 1483 | 0.0531088082902 | 1.0 | 0.49306518724
219 | 0 | 180 | db8 | 4 | 0.9 | 13 | 0.9973 | 701 | 0 | 741 | 742 | 41 | 1483 | 0.05525606469 | 1.0 | 0.51386962552
219 | 0 | 240 | db8 | 4 | 0.9 | 14 | 0.995 | 628 | 0 | 740 | 667 | 39 | 1407 | 0.0584707646177 | 1.0 | 0.540935672515
219 | 0 | 240 | db8 | 4 | 0.9 | 14 | 0.9973 | 590 | 0 | 778 | 629 | 39 | 1407 | 0.0620031796502 | 1.0 | 0.568713450292
219 | 0 | 300 | db8 | 4 | 0.9 | 15 | 0.995 | 461 | 0 | 831 | 499 | 38 | 1330 | 0.0761523046092 | 1.0 | 0.643188854489
219 | 0 | 300 | db8 | 4 | 0.9 | 15 | 0.9973 | 414 | 0 | 878 | 452 | 38 | 1330 | 0.0840707964602 | 1.0 | 0.679566563467
219 | 1 | 120 | db8 | 4 | 0.7 | 11 | 0.995 | 297 | 2 | 1219 | 337 | 40 | 1558 | 0.118694362018 | 0.998361998362 | 0.804089709763
219 | 1 | 120 | db8 | 4 | 0.7 | 11 | 0.9973 | 259 | 6 | 1257 | 295 | 36 | 1558 | 0.122033898305 | 0.995249406176 | 0.829155672823
219 | 1 | 180 | db8 | 4 | 0.7 | 12 | 0.995 | 233 | 0 | 1209 | 274 | 41 | 1483 | 0.149635036496 | 1.0 | 0.838418862691
219 | 1 | 180 | db8 | 4 | 0.7 | 12 | 0.9973 | 208 | 1 | 1234 | 248 | 40 | 1483 | 0.161290322581 | 0.999190283401 | 0.855755894591
219 | 1 | 240 | db8 | 4 | 0.7 | 12 | 0.995 | 129 | 0 | 1239 | 168 | 39 | 1407 | 0.232142857143 | 1.0 | 0.905701754386
219 | 1 | 240 | db8 | 4 | 0.7 | 12 | 0.9973 | 109 | 0 | 1259 | 148 | 39 | 1407 | 0.263513513514 | 1.0 | 0.920321637427
219 | 1 | 300 | db8 | 4 | 0.7 | 12 | 0.995 | 396 | 0 | 896 | 434 | 38 | 1330 | 0.0875576036866 | 1.0 | 0.693498452012
219 | 1 | 300 | db8 | 4 | 0.7 | 12 | 0.9973 | 359 | 0 | 933 | 397 | 38 | 1330 | 0.095717884131 | 1.0 | 0.72213622291
219 | 1 | 120 | db8 | 4 | 0.8 | 16 | 0.995 | 423 | 3 | 1093 | 462 | 39 | 1558 | 0.0844155844156 | 0.997262773723 | 0.720976253298
219 | 1 | 120 | db8 | 4 | 0.8 | 16 | 0.9973 | 389 | 4 | 1127 | 427 | 38 | 1558 | 0.0889929742389 | 0.996463306808 | 0.743403693931
219 | 1 | 180 | db8 | 4 | 0.8 | 16 | 0.995 | 296 | 0 | 1146 | 337 | 41 | 1483 | 0.121661721068 | 1.0 | 0.794729542302
219 | 1 | 180 | db8 | 4 | 0.8 | 16 | 0.9973 | 266 | 0 | 1176 | 307 | 41 | 1483 | 0.133550488599 | 1.0 | 0.815533980583
219 | 1 | 240 | db8 | 4 | 0.8 | 16 | 0.995 | 100 | 2 | 1268 | 137 | 37 | 1407 | 0.270072992701 | 0.99842519685 | 0.926900584795
219 | 1 | 240 | db8 | 4 | 0.8 | 16 | 0.9973 | 91 | 3 | 1277 | 127 | 36 | 1407 | 0.283464566929 | 0.99765625 | 0.933479532164
219 | 1 | 300 | db8 | 4 | 0.8 | 15 | 0.995 | 38 | 4 | 1254 | 72 | 34 | 1330 | 0.472222222222 | 0.996820349762 | 0.970588235294
219 | 1 | 300 | db8 | 4 | 0.8 | 15 | 0.9973 | 30 | 6 | 1262 | 62 | 32 | 1330 | 0.516129032258 | 0.995268138801 | 0.976780185759
219 | 1 | 120 | db8 | 4 | 0.9 | 22 | 0.995 | 369 | 2 | 1147 | 409 | 40 | 1558 | 0.0977995110024 | 0.998259355962 | 0.756596306069
219 | 1 | 120 | db8 | 4 | 0.9 | 22 | 0.9973 | 328 | 2 | 1188 | 368 | 40 | 1558 | 0.108695652174 | 0.998319327731 | 0.78364116095
219 | 1 | 180 | db8 | 4 | 0.9 | 22 | 0.995 | 270 | 0 | 1172 | 311 | 41 | 1483 | 0.131832797428 | 1.0 | 0.812760055479
219 | 1 | 180 | db8 | 4 | 0.9 | 22 | 0.9973 | 238 | 0 | 1204 | 279 | 41 | 1483 | 0.146953405018 | 1.0 | 0.834951456311
219 | 1 | 240 | db8 | 4 | 0.9 | 21 | 0.995 | 146 | 1 | 1222 | 184 | 38 | 1407 | 0.20652173913 | 0.999182338512 | 0.893274853801
219 | 1 | 240 | db8 | 4 | 0.9 | 21 | 0.9973 | 126 | 1 | 1242 | 164 | 38 | 1407 | 0.231707317073 | 0.999195494771 | 0.907894736842
219 | 1 | 300 | db8 | 4 | 0.9 | 21 | 0.995 | 86 | 0 | 1206 | 124 | 38 | 1330 | 0.306451612903 | 1.0 | 0.933436532508
219 | 1 | 300 | db8 | 4 | 0.9 | 21 | 0.9973 | 68 | 0 | 1224 | 106 | 38 | 1330 | 0.358490566038 | 1.0 | 0.947368421053
221 | 0 | 120 | db8 | 4 | 0.7 | 8 | 0.995 | 76 | 127 | 1405 | 290 | 214 | 1822 | 0.737931034483 | 0.917101827676 | 0.94868332208
221 | 0 | 120 | db8 | 4 | 0.7 | 8 | 0.9973 | 56 | 153 | 1425 | 244 | 188 | 1822 | 0.770491803279 | 0.903041825095 | 0.962187711006
221 | 0 | 180 | db8 | 4 | 0.7 | 8 | 0.995 | 36 | 208 | 1379 | 152 | 116 | 1739 | 0.763157894737 | 0.868935097669 | 0.974558303887
221 | 0 | 180 | db8 | 4 | 0.7 | 8 | 0.9973 | 27 | 223 | 1388 | 128 | 101 | 1739 | 0.7890625 | 0.861576660459 | 0.980918727915
221 | 0 | 240 | db8 | 4 | 0.7 | 9 | 0.995 | 36 | 210 | 1316 | 133 | 97 | 1659 | 0.729323308271 | 0.862385321101 | 0.973372781065
221 | 0 | 240 | db8 | 4 | 0.7 | 9 | 0.9973 | 28 | 223 | 1324 | 112 | 84 | 1659 | 0.75 | 0.855850032321 | 0.979289940828
221 | 0 | 300 | db8 | 4 | 0.7 | 9 | 0.995 | 47 | 203 | 1238 | 132 | 85 | 1573 | 0.643939393939 | 0.859125607217 | 0.963424124514
221 | 0 | 300 | db8 | 4 | 0.7 | 9 | 0.9973 | 36 | 211 | 1249 | 113 | 77 | 1573 | 0.681415929204 | 0.855479452055 | 0.971984435798
221 | 0 | 120 | db8 | 4 | 0.8 | 10 | 0.995 | 108 | 133 | 1373 | 316 | 208 | 1822 | 0.658227848101 | 0.911686586985 | 0.927076299797
221 | 0 | 120 | db8 | 4 | 0.8 | 10 | 0.9973 | 83 | 155 | 1398 | 269 | 186 | 1822 | 0.691449814126 | 0.900193174501 | 0.943956785955
221 | 0 | 180 | db8 | 4 | 0.8 | 11 | 0.995 | 42 | 170 | 1373 | 196 | 154 | 1739 | 0.785714285714 | 0.889825016202 | 0.970318021201
221 | 0 | 180 | db8 | 4 | 0.8 | 11 | 0.9973 | 31 | 185 | 1384 | 170 | 139 | 1739 | 0.817647058824 | 0.882090503505 | 0.978091872792
221 | 0 | 240 | db8 | 4 | 0.8 | 11 | 0.995 | 45 | 197 | 1307 | 155 | 110 | 1659 | 0.709677419355 | 0.869015957447 | 0.966715976331
221 | 0 | 240 | db8 | 4 | 0.8 | 11 | 0.9973 | 34 | 208 | 1318 | 133 | 99 | 1659 | 0.744360902256 | 0.86369593709 | 0.974852071006
221 | 0 | 300 | db8 | 4 | 0.8 | 11 | 0.995 | 45 | 146 | 1240 | 187 | 142 | 1573 | 0.75935828877 | 0.894660894661 | 0.964980544747
221 | 0 | 300 | db8 | 4 | 0.8 | 11 | 0.9973 | 33 | 162 | 1252 | 159 | 126 | 1573 | 0.792452830189 | 0.885431400283 | 0.974319066148
221 | 0 | 120 | db8 | 4 | 0.9 | 14 | 0.995 | 100 | 90 | 1381 | 351 | 251 | 1822 | 0.7150997151 | 0.938817131203 | 0.932478055368
221 | 0 | 120 | db8 | 4 | 0.9 | 14 | 0.9973 | 81 | 106 | 1400 | 316 | 235 | 1822 | 0.743670886076 | 0.929614873838 | 0.945307224848
221 | 0 | 180 | db8 | 4 | 0.9 | 15 | 0.995 | 45 | 89 | 1370 | 280 | 235 | 1739 | 0.839285714286 | 0.938999314599 | 0.968197879859
221 | 0 | 180 | db8 | 4 | 0.9 | 15 | 0.9973 | 42 | 103 | 1373 | 263 | 221 | 1739 | 0.84030418251 | 0.930216802168 | 0.970318021201
221 | 0 | 240 | db8 | 4 | 0.9 | 15 | 0.995 | 45 | 98 | 1307 | 254 | 209 | 1659 | 0.822834645669 | 0.93024911032 | 0.966715976331
221 | 0 | 240 | db8 | 4 | 0.9 | 15 | 0.9973 | 38 | 108 | 1314 | 237 | 199 | 1659 | 0.839662447257 | 0.924050632911 | 0.971893491124
221 | 0 | 300 | db8 | 4 | 0.9 | 16 | 0.995 | 45 | 113 | 1240 | 220 | 175 | 1573 | 0.795454545455 | 0.916481892092 | 0.964980544747
221 | 0 | 300 | db8 | 4 | 0.9 | 16 | 0.9973 | 38 | 127 | 1247 | 199 | 161 | 1573 | 0.809045226131 | 0.907569141194 | 0.970428015564
221 | 1 | 120 | db8 | 4 | 0.7 | 6 | 0.995 | 112 | 63 | 1369 | 390 | 278 | 1822 | 0.712820512821 | 0.956005586592 | 0.924375422012
221 | 1 | 120 | db8 | 4 | 0.7 | 6 | 0.9973 | 88 | 74 | 1393 | 355 | 267 | 1822 | 0.752112676056 | 0.949556918882 | 0.940580688724
221 | 1 | 180 | db8 | 4 | 0.7 | 9 | 0.995 | 180 | 58 | 1235 | 446 | 266 | 1739 | 0.596412556054 | 0.955143078113 | 0.872791519435
221 | 1 | 180 | db8 | 4 | 0.7 | 9 | 0.9973 | 154 | 68 | 1261 | 410 | 256 | 1739 | 0.624390243902 | 0.948833709556 | 0.891166077739
221 | 1 | 240 | db8 | 4 | 0.7 | 9 | 0.995 | 167 | 67 | 1185 | 407 | 240 | 1659 | 0.589680589681 | 0.946485623003 | 0.876479289941
221 | 1 | 240 | db8 | 4 | 0.7 | 9 | 0.9973 | 150 | 79 | 1202 | 378 | 228 | 1659 | 0.603174603175 | 0.938329430133 | 0.889053254438
221 | 1 | 300 | db8 | 4 | 0.7 | 8 | 0.995 | 132 | 66 | 1153 | 354 | 222 | 1573 | 0.627118644068 | 0.945857260049 | 0.897276264591
221 | 1 | 300 | db8 | 4 | 0.7 | 8 | 0.9973 | 111 | 80 | 1174 | 319 | 208 | 1573 | 0.652037617555 | 0.93620414673 | 0.913618677043
221 | 1 | 120 | db8 | 4 | 0.8 | 8 | 0.995 | 177 | 56 | 1304 | 462 | 285 | 1822 | 0.616883116883 | 0.958823529412 | 0.880486158001
221 | 1 | 120 | db8 | 4 | 0.8 | 8 | 0.9973 | 151 | 64 | 1330 | 428 | 277 | 1822 | 0.647196261682 | 0.954088952654 | 0.898041863606
221 | 1 | 180 | db8 | 4 | 0.8 | 12 | 0.995 | 238 | 38 | 1177 | 524 | 286 | 1739 | 0.545801526718 | 0.968724279835 | 0.831802120141
221 | 1 | 180 | db8 | 4 | 0.8 | 12 | 0.9973 | 204 | 47 | 1211 | 481 | 277 | 1739 | 0.575883575884 | 0.962639109698 | 0.855830388693
221 | 1 | 240 | db8 | 4 | 0.8 | 11 | 0.995 | 179 | 62 | 1173 | 424 | 245 | 1659 | 0.577830188679 | 0.94979757085 | 0.867603550296
221 | 1 | 240 | db8 | 4 | 0.8 | 11 | 0.9973 | 156 | 72 | 1196 | 391 | 235 | 1659 | 0.601023017903 | 0.943217665615 | 0.884615384615
221 | 1 | 300 | db8 | 4 | 0.8 | 11 | 0.995 | 166 | 40 | 1119 | 414 | 248 | 1573 | 0.599033816425 | 0.965487489215 | 0.870817120623
221 | 1 | 300 | db8 | 4 | 0.8 | 11 | 0.9973 | 136 | 52 | 1149 | 372 | 236 | 1573 | 0.634408602151 | 0.95670274771 | 0.894163424125
221 | 1 | 120 | db8 | 4 | 0.9 | 12 | 0.995 | 266 | 30 | 1215 | 577 | 311 | 1822 | 0.538994800693 | 0.975903614458 | 0.820391627279
221 | 1 | 120 | db8 | 4 | 0.9 | 12 | 0.9973 | 238 | 37 | 1243 | 542 | 304 | 1822 | 0.560885608856 | 0.97109375 | 0.839297771776
221 | 1 | 180 | db8 | 4 | 0.9 | 17 | 0.995 | 416 | 28 | 999 | 712 | 296 | 1739 | 0.415730337079 | 0.972736124635 | 0.706007067138
221 | 1 | 180 | db8 | 4 | 0.9 | 17 | 0.9973 | 368 | 37 | 1047 | 655 | 287 | 1739 | 0.438167938931 | 0.965867158672 | 0.739929328622
221 | 1 | 240 | db8 | 4 | 0.9 | 17 | 0.995 | 353 | 27 | 999 | 633 | 280 | 1659 | 0.44233807267 | 0.973684210526 | 0.738905325444
221 | 1 | 240 | db8 | 4 | 0.9 | 17 | 0.9973 | 317 | 36 | 1035 | 588 | 271 | 1659 | 0.460884353741 | 0.966386554622 | 0.765532544379
221 | 1 | 300 | db8 | 4 | 0.9 | 16 | 0.995 | 299 | 33 | 986 | 554 | 255 | 1573 | 0.460288808664 | 0.967615309127 | 0.767315175097
221 | 1 | 300 | db8 | 4 | 0.9 | 16 | 0.9973 | 268 | 41 | 1017 | 515 | 247 | 1573 | 0.479611650485 | 0.961247637051 | 0.791439688716
223 | 0 | 120 | db8 | 4 | 0.7 | 9 | 0.995 | 278 | 0 | 1218 | 643 | 365 | 1861 | 0.56765163297 | 1.0 | 0.814171122995
223 | 0 | 120 | db8 | 4 | 0.7 | 9 | 0.9973 | 246 | 0 | 1250 | 611 | 365 | 1861 | 0.597381342062 | 1.0 | 0.835561497326
223 | 0 | 180 | db8 | 4 | 0.7 | 6 | 0.995 | 72 | 52 | 1363 | 374 | 302 | 1789 | 0.807486631016 | 0.963250883392 | 0.949825783972
223 | 0 | 180 | db8 | 4 | 0.7 | 6 | 0.9973 | 53 | 77 | 1382 | 330 | 277 | 1789 | 0.839393939394 | 0.947224126114 | 0.963066202091
223 | 0 | 240 | db8 | 4 | 0.7 | 6 | 0.995 | 129 | 48 | 1229 | 434 | 305 | 1711 | 0.702764976959 | 0.962411902897 | 0.90500736377
223 | 0 | 240 | db8 | 4 | 0.7 | 6 | 0.9973 | 107 | 65 | 1251 | 395 | 288 | 1711 | 0.729113924051 | 0.950607902736 | 0.921207658321
223 | 0 | 300 | db8 | 4 | 0.7 | 6 | 0.995 | 152 | 31 | 1126 | 473 | 321 | 1630 | 0.678646934461 | 0.973206568712 | 0.881064162754
223 | 0 | 300 | db8 | 4 | 0.7 | 6 | 0.9973 | 118 | 47 | 1160 | 423 | 305 | 1630 | 0.721040189125 | 0.96106048053 | 0.907668231612
223 | 0 | 120 | db8 | 4 | 0.8 | 14 | 0.995 | 830 | 0 | 666 | 1195 | 365 | 1861 | 0.305439330544 | 1.0 | 0.445187165775
223 | 0 | 120 | db8 | 4 | 0.8 | 14 | 0.9973 | 792 | 0 | 704 | 1157 | 365 | 1861 | 0.315471045808 | 1.0 | 0.470588235294
223 | 0 | 180 | db8 | 4 | 0.8 | 9 | 0.995 | 179 | 37 | 1256 | 496 | 317 | 1789 | 0.639112903226 | 0.971384377417 | 0.875261324042
223 | 0 | 180 | db8 | 4 | 0.8 | 9 | 0.9973 | 151 | 48 | 1284 | 457 | 306 | 1789 | 0.669584245077 | 0.963963963964 | 0.894773519164
223 | 0 | 240 | db8 | 4 | 0.8 | 10 | 0.995 | 203 | 27 | 1155 | 529 | 326 | 1711 | 0.616257088847 | 0.977157360406 | 0.850515463918
223 | 0 | 240 | db8 | 4 | 0.8 | 10 | 0.9973 | 162 | 37 | 1196 | 478 | 316 | 1711 | 0.661087866109 | 0.9699918897 | 0.880706921944
223 | 0 | 300 | db8 | 4 | 0.8 | 10 | 0.995 | 234 | 15 | 1044 | 571 | 337 | 1630 | 0.590192644483 | 0.985835694051 | 0.816901408451
223 | 0 | 300 | db8 | 4 | 0.8 | 10 | 0.9973 | 199 | 23 | 1079 | 528 | 329 | 1630 | 0.623106060606 | 0.979128856624 | 0.844287949922
223 | 0 | 120 | db8 | 4 | 0.9 | 22 | 0.995 | 313 | 1 | 1183 | 677 | 364 | 1861 | 0.537666174298 | 0.999155405405 | 0.79077540107
223 | 0 | 120 | db8 | 4 | 0.9 | 22 | 0.9973 | 281 | 1 | 1215 | 645 | 364 | 1861 | 0.564341085271 | 0.999177631579 | 0.812165775401
223 | 0 | 180 | db8 | 4 | 0.9 | 19 | 0.995 | 287 | 5 | 1148 | 636 | 349 | 1789 | 0.548742138365 | 0.995663486557 | 0.8
223 | 0 | 180 | db8 | 4 | 0.9 | 19 | 0.9973 | 253 | 6 | 1182 | 601 | 348 | 1789 | 0.579034941764 | 0.994949494949 | 0.823693379791
223 | 0 | 240 | db8 | 4 | 0.9 | 21 | 0.995 | 295 | 1 | 1063 | 647 | 352 | 1711 | 0.544049459042 | 0.999060150376 | 0.782768777614
223 | 0 | 240 | db8 | 4 | 0.9 | 21 | 0.9973 | 268 | 1 | 1090 | 620 | 352 | 1711 | 0.567741935484 | 0.999083409716 | 0.80265095729
223 | 0 | 300 | db8 | 4 | 0.9 | 20 | 0.995 | 327 | 1 | 951 | 678 | 351 | 1630 | 0.517699115044 | 0.998949579832 | 0.744131455399
223 | 0 | 300 | db8 | 4 | 0.9 | 20 | 0.9973 | 292 | 2 | 986 | 642 | 350 | 1630 | 0.545171339564 | 0.997975708502 | 0.77151799687
223 | 1 | 120 | db8 | 4 | 0.7 | 15 | 0.995 | 332 | 0 | 1164 | 697 | 365 | 1861 | 0.523672883788 | 1.0 | 0.77807486631
223 | 1 | 120 | db8 | 4 | 0.7 | 15 | 0.9973 | 305 | 0 | 1191 | 670 | 365 | 1861 | 0.544776119403 | 1.0 | 0.796122994652
223 | 1 | 180 | db8 | 4 | 0.7 | 9 | 0.995 | 94 | 3 | 1341 | 445 | 351 | 1789 | 0.788764044944 | 0.997767857143 | 0.934494773519
223 | 1 | 180 | db8 | 4 | 0.7 | 9 | 0.9973 | 87 | 8 | 1348 | 433 | 346 | 1789 | 0.799076212471 | 0.994100294985 | 0.9393728223
223 | 1 | 240 | db8 | 4 | 0.7 | 9 | 0.995 | 107 | 9 | 1251 | 451 | 344 | 1711 | 0.762749445676 | 0.992857142857 | 0.921207658321
223 | 1 | 240 | db8 | 4 | 0.7 | 9 | 0.9973 | 97 | 9 | 1261 | 441 | 344 | 1711 | 0.780045351474 | 0.992913385827 | 0.928571428571
223 | 1 | 300 | db8 | 4 | 0.7 | 10 | 0.995 | 131 | 0 | 1147 | 483 | 352 | 1630 | 0.728778467909 | 1.0 | 0.897496087637
223 | 1 | 300 | db8 | 4 | 0.7 | 10 | 0.9973 | 119 | 0 | 1159 | 471 | 352 | 1630 | 0.747346072187 | 1.0 | 0.906885758998
223 | 1 | 120 | db8 | 4 | 0.8 | 20 | 0.995 | 271 | 4 | 1225 | 632 | 361 | 1861 | 0.571202531646 | 0.9967453214 | 0.81885026738
223 | 1 | 120 | db8 | 4 | 0.8 | 20 | 0.9973 | 260 | 5 | 1236 | 620 | 360 | 1861 | 0.58064516129 | 0.995970991136 | 0.826203208556
223 | 1 | 180 | db8 | 4 | 0.8 | 12 | 0.995 | 106 | 2 | 1329 | 458 | 352 | 1789 | 0.768558951965 | 0.998497370398 | 0.926132404181
223 | 1 | 180 | db8 | 4 | 0.8 | 12 | 0.9973 | 96 | 2 | 1339 | 448 | 352 | 1789 | 0.785714285714 | 0.99850857569 | 0.933101045296
223 | 1 | 240 | db8 | 4 | 0.8 | 12 | 0.995 | 134 | 0 | 1224 | 487 | 353 | 1711 | 0.724845995893 | 1.0 | 0.901325478645
223 | 1 | 240 | db8 | 4 | 0.8 | 12 | 0.9973 | 127 | 0 | 1231 | 480 | 353 | 1711 | 0.735416666667 | 1.0 | 0.90648011782
223 | 1 | 300 | db8 | 4 | 0.8 | 13 | 0.995 | 151 | 0 | 1127 | 503 | 352 | 1630 | 0.699801192843 | 1.0 | 0.881846635368
223 | 1 | 300 | db8 | 4 | 0.8 | 13 | 0.9973 | 136 | 0 | 1142 | 488 | 352 | 1630 | 0.72131147541 | 1.0 | 0.89358372457
223 | 1 | 120 | db8 | 4 | 0.9 | 28 | 0.995 | 338 | 0 | 1158 | 703 | 365 | 1861 | 0.51920341394 | 1.0 | 0.774064171123
223 | 1 | 120 | db8 | 4 | 0.9 | 28 | 0.9973 | 321 | 0 | 1175 | 686 | 365 | 1861 | 0.532069970845 | 1.0 | 0.785427807487
223 | 1 | 180 | db8 | 4 | 0.9 | 18 | 0.995 | 107 | 69 | 1328 | 392 | 285 | 1789 | 0.727040816327 | 0.950608446671 | 0.92543554007
223 | 1 | 180 | db8 | 4 | 0.9 | 18 | 0.9973 | 99 | 75 | 1336 | 378 | 279 | 1789 | 0.738095238095 | 0.946846208363 | 0.931010452962
223 | 1 | 240 | db8 | 4 | 0.9 | 20 | 0.995 | 146 | 5 | 1212 | 494 | 348 | 1711 | 0.704453441296 | 0.995891536565 | 0.892488954345
223 | 1 | 240 | db8 | 4 | 0.9 | 20 | 0.9973 | 138 | 6 | 1220 | 485 | 347 | 1711 | 0.715463917526 | 0.995106035889 | 0.898379970545
223 | 1 | 300 | db8 | 4 | 0.9 | 20 | 0.995 | 147 | 0 | 1131 | 499 | 352 | 1630 | 0.705410821643 | 1.0 | 0.884976525822
223 | 1 | 300 | db8 | 4 | 0.9 | 20 | 0.9973 | 137 | 0 | 1141 | 489 | 352 | 1630 | 0.719836400818 | 1.0 | 0.892801251956
228 | 0 | 120 | db8 | 4 | 0.7 | 16 | 0.995 | 169 | 160 | 1080 | 269 | 100 | 1509 | 0.371747211896 | 0.870967741935 | 0.864691753403
228 | 0 | 120 | db8 | 4 | 0.7 | 16 | 0.9973 | 153 | 163 | 1096 | 250 | 97 | 1509 | 0.388 | 0.870532168388 | 0.877502001601
228 | 0 | 180 | db8 | 4 | 0.7 | 14 | 0.995 | 78 | 161 | 1113 | 165 | 87 | 1439 | 0.527272727273 | 0.873626373626 | 0.934508816121
228 | 0 | 180 | db8 | 4 | 0.7 | 14 | 0.9973 | 75 | 167 | 1116 | 156 | 81 | 1439 | 0.519230769231 | 0.869836321122 | 0.937027707809
228 | 0 | 240 | db8 | 4 | 0.7 | 15 | 0.995 | 72 | 156 | 1059 | 154 | 82 | 1369 | 0.532467532468 | 0.871604938272 | 0.936339522546
228 | 0 | 240 | db8 | 4 | 0.7 | 15 | 0.9973 | 66 | 159 | 1065 | 145 | 79 | 1369 | 0.544827586207 | 0.870098039216 | 0.941644562334
228 | 0 | 300 | db8 | 4 | 0.7 | 15 | 0.995 | 33 | 164 | 1034 | 101 | 68 | 1299 | 0.673267326733 | 0.863105175292 | 0.969072164948
228 | 0 | 300 | db8 | 4 | 0.7 | 15 | 0.9973 | 30 | 166 | 1037 | 96 | 66 | 1299 | 0.6875 | 0.862011637573 | 0.971883786317
228 | 0 | 120 | db8 | 4 | 0.8 | 20 | 0.995 | 209 | 151 | 1040 | 318 | 109 | 1509 | 0.342767295597 | 0.873215785055 | 0.832666132906
228 | 0 | 120 | db8 | 4 | 0.8 | 20 | 0.9973 | 200 | 159 | 1049 | 301 | 101 | 1509 | 0.335548172757 | 0.868377483444 | 0.839871897518
228 | 0 | 180 | db8 | 4 | 0.8 | 18 | 0.995 | 104 | 152 | 1087 | 200 | 96 | 1439 | 0.48 | 0.877320419693 | 0.912678421495
228 | 0 | 180 | db8 | 4 | 0.8 | 18 | 0.9973 | 94 | 155 | 1097 | 187 | 93 | 1439 | 0.497326203209 | 0.876198083067 | 0.92107472712
228 | 0 | 240 | db8 | 4 | 0.8 | 20 | 0.995 | 121 | 147 | 1010 | 212 | 91 | 1369 | 0.429245283019 | 0.872947277442 | 0.893015030946
228 | 0 | 240 | db8 | 4 | 0.8 | 20 | 0.9973 | 110 | 151 | 1021 | 197 | 87 | 1369 | 0.441624365482 | 0.871160409556 | 0.902740937224
228 | 0 | 300 | db8 | 4 | 0.8 | 19 | 0.995 | 46 | 162 | 1021 | 116 | 70 | 1299 | 0.603448275862 | 0.863060016906 | 0.956888472352
228 | 0 | 300 | db8 | 4 | 0.8 | 19 | 0.9973 | 43 | 164 | 1024 | 111 | 68 | 1299 | 0.612612612613 | 0.861952861953 | 0.959700093721
228 | 0 | 120 | db8 | 4 | 0.9 | 26 | 0.995 | 271 | 143 | 978 | 388 | 117 | 1509 | 0.301546391753 | 0.872435325602 | 0.783026421137
228 | 0 | 120 | db8 | 4 | 0.9 | 26 | 0.9973 | 252 | 148 | 997 | 364 | 112 | 1509 | 0.307692307692 | 0.870742358079 | 0.798238590873
228 | 0 | 180 | db8 | 4 | 0.9 | 24 | 0.995 | 166 | 148 | 1025 | 266 | 100 | 1439 | 0.375939849624 | 0.873827791986 | 0.860621326616
228 | 0 | 180 | db8 | 4 | 0.9 | 24 | 0.9973 | 150 | 150 | 1041 | 248 | 98 | 1439 | 0.395161290323 | 0.874055415617 | 0.874055415617
228 | 0 | 240 | db8 | 4 | 0.9 | 25 | 0.995 | 145 | 144 | 986 | 239 | 94 | 1369 | 0.393305439331 | 0.872566371681 | 0.871794871795
228 | 0 | 240 | db8 | 4 | 0.9 | 25 | 0.9973 | 128 | 148 | 1003 | 218 | 90 | 1369 | 0.412844036697 | 0.871416159861 | 0.88682581786
228 | 0 | 300 | db8 | 4 | 0.9 | 25 | 0.995 | 60 | 162 | 1007 | 130 | 70 | 1299 | 0.538461538462 | 0.861420017109 | 0.943767572634
228 | 0 | 300 | db8 | 4 | 0.9 | 25 | 0.9973 | 56 | 164 | 1011 | 124 | 68 | 1299 | 0.548387096774 | 0.860425531915 | 0.947516401125
228 | 1 | 120 | db8 | 4 | 0.7 | 8 | 0.995 | 19 | 206 | 1230 | 73 | 54 | 1509 | 0.739726027397 | 0.856545961003 | 0.984787830264
228 | 1 | 120 | db8 | 4 | 0.7 | 8 | 0.9973 | 13 | 207 | 1236 | 66 | 53 | 1509 | 0.80303030303 | 0.856548856549 | 0.989591673339
228 | 1 | 180 | db8 | 4 | 0.7 | 8 | 0.995 | 13 | 194 | 1178 | 67 | 54 | 1439 | 0.805970149254 | 0.85860058309 | 0.989084802687
228 | 1 | 180 | db8 | 4 | 0.7 | 8 | 0.9973 | 8 | 194 | 1183 | 62 | 54 | 1439 | 0.870967741935 | 0.859114015977 | 0.9932829555
228 | 1 | 240 | db8 | 4 | 0.7 | 8 | 0.995 | 8 | 181 | 1123 | 65 | 57 | 1369 | 0.876923076923 | 0.861196319018 | 0.992926613616
228 | 1 | 240 | db8 | 4 | 0.7 | 8 | 0.9973 | 6 | 183 | 1125 | 61 | 55 | 1369 | 0.901639344262 | 0.860091743119 | 0.994694960212
228 | 1 | 300 | db8 | 4 | 0.7 | 8 | 0.995 | 10 | 171 | 1057 | 71 | 61 | 1299 | 0.859154929577 | 0.860749185668 | 0.990627928772
228 | 1 | 300 | db8 | 4 | 0.7 | 8 | 0.9973 | 8 | 178 | 1059 | 62 | 54 | 1299 | 0.870967741935 | 0.856103476152 | 0.992502343018
228 | 1 | 120 | db8 | 4 | 0.8 | 10 | 0.995 | 26 | 179 | 1223 | 107 | 81 | 1509 | 0.757009345794 | 0.872325249643 | 0.979183346677
228 | 1 | 120 | db8 | 4 | 0.8 | 10 | 0.9973 | 22 | 184 | 1227 | 98 | 76 | 1509 | 0.775510204082 | 0.869596031184 | 0.982385908727
228 | 1 | 180 | db8 | 4 | 0.8 | 10 | 0.995 | 14 | 179 | 1177 | 83 | 69 | 1439 | 0.831325301205 | 0.867994100295 | 0.988245172124
228 | 1 | 180 | db8 | 4 | 0.8 | 10 | 0.9973 | 12 | 183 | 1179 | 77 | 65 | 1439 | 0.844155844156 | 0.86563876652 | 0.989924433249
228 | 1 | 240 | db8 | 4 | 0.8 | 10 | 0.995 | 8 | 181 | 1123 | 65 | 57 | 1369 | 0.876923076923 | 0.861196319018 | 0.992926613616
228 | 1 | 240 | db8 | 4 | 0.8 | 10 | 0.9973 | 6 | 184 | 1125 | 60 | 54 | 1369 | 0.9 | 0.859434682964 | 0.994694960212
228 | 1 | 300 | db8 | 4 | 0.8 | 10 | 0.995 | 11 | 176 | 1056 | 67 | 56 | 1299 | 0.835820895522 | 0.857142857143 | 0.989690721649
228 | 1 | 300 | db8 | 4 | 0.8 | 10 | 0.9973 | 7 | 181 | 1060 | 58 | 51 | 1299 | 0.879310344828 | 0.85414987913 | 0.993439550141
228 | 1 | 120 | db8 | 4 | 0.9 | 13 | 0.995 | 38 | 167 | 1211 | 131 | 93 | 1509 | 0.709923664122 | 0.878809869376 | 0.969575660528
228 | 1 | 120 | db8 | 4 | 0.9 | 13 | 0.9973 | 34 | 176 | 1215 | 118 | 84 | 1509 | 0.71186440678 | 0.87347232207 | 0.972778222578
228 | 1 | 180 | db8 | 4 | 0.9 | 13 | 0.995 | 20 | 179 | 1171 | 89 | 69 | 1439 | 0.775280898876 | 0.867407407407 | 0.983207388749
228 | 1 | 180 | db8 | 4 | 0.9 | 13 | 0.9973 | 18 | 184 | 1173 | 82 | 64 | 1439 | 0.780487804878 | 0.864406779661 | 0.984886649874
228 | 1 | 240 | db8 | 4 | 0.9 | 14 | 0.995 | 11 | 181 | 1120 | 68 | 57 | 1369 | 0.838235294118 | 0.860876249039 | 0.990274093722
228 | 1 | 240 | db8 | 4 | 0.9 | 14 | 0.9973 | 9 | 183 | 1122 | 64 | 55 | 1369 | 0.859375 | 0.859770114943 | 0.992042440318
228 | 1 | 300 | db8 | 4 | 0.9 | 14 | 0.995 | 11 | 173 | 1056 | 70 | 59 | 1299 | 0.842857142857 | 0.859235150529 | 0.989690721649
228 | 1 | 300 | db8 | 4 | 0.9 | 14 | 0.9973 | 9 | 178 | 1058 | 63 | 54 | 1299 | 0.857142857143 | 0.855987055016 | 0.991565135895
233 | 0 | 120 | db8 | 4 | 0.7 | 12 | 0.995 | 9 | 365 | 1649 | 251 | 242 | 2265 | 0.964143426295 | 0.818768619662 | 0.994571773221
233 | 0 | 120 | db8 | 4 | 0.7 | 12 | 0.9973 | 9 | 399 | 1649 | 217 | 208 | 2265 | 0.958525345622 | 0.80517578125 | 0.994571773221
233 | 0 | 180 | db8 | 4 | 0.7 | 12 | 0.995 | 11 | 391 | 1585 | 188 | 177 | 2164 | 0.941489361702 | 0.802125506073 | 0.993107769424
233 | 0 | 180 | db8 | 4 | 0.7 | 12 | 0.9973 | 10 | 425 | 1586 | 153 | 143 | 2164 | 0.934640522876 | 0.788662357036 | 0.99373433584
233 | 0 | 240 | db8 | 4 | 0.7 | 12 | 0.995 | 15 | 367 | 1508 | 188 | 173 | 2063 | 0.920212765957 | 0.804266666667 | 0.990151017728
233 | 0 | 240 | db8 | 4 | 0.7 | 12 | 0.9973 | 12 | 394 | 1511 | 158 | 146 | 2063 | 0.924050632911 | 0.793175853018 | 0.992120814183
233 | 0 | 300 | db8 | 4 | 0.7 | 12 | 0.995 | 20 | 323 | 1424 | 216 | 196 | 1963 | 0.907407407407 | 0.81511161992 | 0.986149584488
233 | 0 | 300 | db8 | 4 | 0.7 | 12 | 0.9973 | 17 | 347 | 1427 | 189 | 172 | 1963 | 0.910052910053 | 0.804396843292 | 0.988227146814
233 | 0 | 120 | db8 | 4 | 0.8 | 16 | 0.995 | 17 | 346 | 1641 | 278 | 261 | 2265 | 0.938848920863 | 0.825868142929 | 0.98974668275
233 | 0 | 120 | db8 | 4 | 0.8 | 16 | 0.9973 | 11 | 362 | 1647 | 256 | 245 | 2265 | 0.95703125 | 0.81981085117 | 0.993365500603
233 | 0 | 180 | db8 | 4 | 0.8 | 16 | 0.995 | 18 | 372 | 1578 | 214 | 196 | 2164 | 0.915887850467 | 0.809230769231 | 0.988721804511
233 | 0 | 180 | db8 | 4 | 0.8 | 16 | 0.9973 | 14 | 393 | 1582 | 189 | 175 | 2164 | 0.925925925926 | 0.801012658228 | 0.991228070175
233 | 0 | 240 | db8 | 4 | 0.8 | 16 | 0.995 | 18 | 349 | 1505 | 209 | 191 | 2063 | 0.913875598086 | 0.811758360302 | 0.988181221274
233 | 0 | 240 | db8 | 4 | 0.8 | 16 | 0.9973 | 14 | 372 | 1509 | 182 | 168 | 2063 | 0.923076923077 | 0.802232854864 | 0.990807616546
233 | 0 | 300 | db8 | 4 | 0.8 | 16 | 0.995 | 23 | 291 | 1421 | 251 | 228 | 1963 | 0.908366533865 | 0.830023364486 | 0.984072022161
233 | 0 | 300 | db8 | 4 | 0.8 | 16 | 0.9973 | 19 | 308 | 1425 | 230 | 211 | 1963 | 0.917391304348 | 0.822273514137 | 0.986842105263
233 | 0 | 120 | db8 | 4 | 0.9 | 22 | 0.995 | 29 | 311 | 1629 | 325 | 296 | 2265 | 0.910769230769 | 0.839690721649 | 0.982509047045
233 | 0 | 120 | db8 | 4 | 0.9 | 22 | 0.9973 | 23 | 330 | 1635 | 300 | 277 | 2265 | 0.923333333333 | 0.832061068702 | 0.986127864897
233 | 0 | 180 | db8 | 4 | 0.9 | 22 | 0.995 | 37 | 357 | 1559 | 248 | 211 | 2164 | 0.850806451613 | 0.813674321503 | 0.976817042607
233 | 0 | 180 | db8 | 4 | 0.9 | 22 | 0.9973 | 30 | 373 | 1566 | 225 | 195 | 2164 | 0.866666666667 | 0.807632800413 | 0.981203007519
233 | 0 | 240 | db8 | 4 | 0.9 | 21 | 0.995 | 34 | 336 | 1489 | 238 | 204 | 2063 | 0.857142857143 | 0.815890410959 | 0.977675640184
233 | 0 | 240 | db8 | 4 | 0.9 | 21 | 0.9973 | 28 | 362 | 1495 | 206 | 178 | 2063 | 0.864077669903 | 0.805061927841 | 0.981615233093
233 | 0 | 300 | db8 | 4 | 0.9 | 21 | 0.995 | 33 | 293 | 1411 | 259 | 226 | 1963 | 0.872586872587 | 0.828051643192 | 0.977146814404
233 | 0 | 300 | db8 | 4 | 0.9 | 21 | 0.9973 | 31 | 322 | 1413 | 228 | 197 | 1963 | 0.864035087719 | 0.814409221902 | 0.978531855956
233 | 1 | 120 | db8 | 4 | 0.7 | 8 | 0.995 | 8 | 318 | 1650 | 297 | 289 | 2265 | 0.973063973064 | 0.838414634146 | 0.99517490953
233 | 1 | 120 | db8 | 4 | 0.7 | 8 | 0.9973 | 7 | 370 | 1651 | 244 | 237 | 2265 | 0.97131147541 | 0.816922315685 | 0.995778045838
233 | 1 | 180 | db8 | 4 | 0.7 | 7 | 0.995 | 7 | 380 | 1589 | 195 | 188 | 2164 | 0.964102564103 | 0.807008633824 | 0.995614035088
233 | 1 | 180 | db8 | 4 | 0.7 | 7 | 0.9973 | 7 | 415 | 1589 | 160 | 153 | 2164 | 0.95625 | 0.792914171657 | 0.995614035088
233 | 1 | 240 | db8 | 4 | 0.7 | 7 | 0.995 | 10 | 368 | 1513 | 182 | 172 | 2063 | 0.945054945055 | 0.804359383307 | 0.993434011819
233 | 1 | 240 | db8 | 4 | 0.7 | 7 | 0.9973 | 8 | 393 | 1515 | 155 | 147 | 2063 | 0.948387096774 | 0.794025157233 | 0.994747209455
233 | 1 | 300 | db8 | 4 | 0.7 | 7 | 0.995 | 13 | 328 | 1431 | 204 | 191 | 1963 | 0.936274509804 | 0.813530415009 | 0.990997229917
233 | 1 | 300 | db8 | 4 | 0.7 | 7 | 0.9973 | 10 | 352 | 1434 | 177 | 167 | 1963 | 0.943502824859 | 0.802911534155 | 0.993074792244
233 | 1 | 120 | db8 | 4 | 0.8 | 11 | 0.995 | 15 | 369 | 1643 | 253 | 238 | 2265 | 0.940711462451 | 0.816600397614 | 0.990952955368
233 | 1 | 120 | db8 | 4 | 0.8 | 11 | 0.9973 | 14 | 405 | 1644 | 216 | 202 | 2265 | 0.935185185185 | 0.802342606149 | 0.991556091677
233 | 1 | 180 | db8 | 4 | 0.8 | 10 | 0.995 | 16 | 391 | 1580 | 193 | 177 | 2164 | 0.917098445596 | 0.80162354135 | 0.989974937343
233 | 1 | 180 | db8 | 4 | 0.8 | 10 | 0.9973 | 15 | 428 | 1581 | 155 | 140 | 2164 | 0.903225806452 | 0.786958685913 | 0.990601503759
233 | 1 | 240 | db8 | 4 | 0.8 | 10 | 0.995 | 18 | 366 | 1505 | 192 | 174 | 2063 | 0.90625 | 0.804382683057 | 0.988181221274
233 | 1 | 240 | db8 | 4 | 0.8 | 10 | 0.9973 | 17 | 397 | 1506 | 160 | 143 | 2063 | 0.89375 | 0.791382028376 | 0.988837820092
233 | 1 | 300 | db8 | 4 | 0.8 | 10 | 0.995 | 17 | 323 | 1427 | 213 | 196 | 1963 | 0.920187793427 | 0.815428571429 | 0.988227146814
233 | 1 | 300 | db8 | 4 | 0.8 | 10 | 0.9973 | 16 | 353 | 1428 | 182 | 166 | 1963 | 0.912087912088 | 0.801796743403 | 0.98891966759
233 | 1 | 120 | db8 | 4 | 0.9 | 18 | 0.995 | 25 | 323 | 1633 | 309 | 284 | 2265 | 0.919093851133 | 0.834867075665 | 0.98492159228
233 | 1 | 120 | db8 | 4 | 0.9 | 18 | 0.9973 | 24 | 352 | 1634 | 279 | 255 | 2265 | 0.913978494624 | 0.822759315206 | 0.985524728589
233 | 1 | 180 | db8 | 4 | 0.9 | 17 | 0.995 | 29 | 388 | 1567 | 209 | 180 | 2164 | 0.861244019139 | 0.801534526854 | 0.981829573935
233 | 1 | 180 | db8 | 4 | 0.9 | 17 | 0.9973 | 25 | 412 | 1571 | 181 | 156 | 2164 | 0.861878453039 | 0.792233988906 | 0.984335839599
233 | 1 | 240 | db8 | 4 | 0.9 | 17 | 0.995 | 30 | 388 | 1493 | 182 | 152 | 2063 | 0.835164835165 | 0.793726741095 | 0.980302035456
233 | 1 | 240 | db8 | 4 | 0.9 | 17 | 0.9973 | 26 | 405 | 1497 | 161 | 135 | 2063 | 0.83850931677 | 0.787066246057 | 0.982928430729
233 | 1 | 300 | db8 | 4 | 0.9 | 17 | 0.995 | 33 | 345 | 1411 | 207 | 174 | 1963 | 0.840579710145 | 0.803530751708 | 0.977146814404
233 | 1 | 300 | db8 | 4 | 0.9 | 17 | 0.9973 | 32 | 368 | 1412 | 183 | 151 | 1963 | 0.825136612022 | 0.793258426966 | 0.97783933518

233 | 1 | 120 | db8 | 4 | 0.9 | 18 | 0.9973 | 3 | 62 | 1655 | 548 | 545 | 2265 | 0.994525547445 | 0.963890506698 | 0.998190591074
